timepoints (min);01: bdA+.1;02: bdA+.2;03: bdA+.3;04: crybdIm1+.1;05: crybdIm1+.2;06: crybdIm1+.3;07: bdA-.1;08: bdA-.2;09: bdA-.3;10: crybdIm1-.1;11: crybdIm1-.2;12: crybdIm1-.3;13: frq1+.1;14: frq1+.2;15: frq1+.3
800;-160.344;-176.547;-197.443;-76.875;-66.025;-56.667;-209.424;-94.428;-162.365;-43.117;-124.921;-165.782;-133.116;-125.955;-87.774
810;-152.687;-170.232;-190.751;-71.344;-63.878;-62.539;-203.792;-95.122;-154.828;-39.236;-125.405;-164.896;-128.604;-120.973;-82.857
820;-145.4;-164;-182.547;-68.453;-61.427;-68.44;-197.573;-97.32;-148.4;-36.32;-125.467;-164.493;-122.307;-115.627;-78.76
830;-139.329;-158.507;-176.332;-68.24;-58.622;-74.273;-188.859;-97.013;-145.859;-34.655;-121.635;-163.938;-116.681;-110.819;-77.724
840;-132.699;-153.346;-169.493;-68.585;-56.985;-78.379;-181.23;-96.73;-142.039;-31.612;-118.37;-162.233;-112.157;-106.541;-77.635
850;-125.979;-147.974;-161.697;-67.654;-56.38;-81.389;-172.885;-98.538;-138.103;-28.329;-114.017;-160.436;-108.966;-102.936;-76.863
860;-120.894;-143.061;-156.551;-66.203;-55.707;-83.28;-163.327;-101.094;-134.534;-28.763;-110.563;-159.544;-106.41;-100.009;-76.473
870;-116.825;-138.575;-150.012;-65.762;-55.075;-84.988;-154.725;-103.487;-132.063;-30.6;-107.7;-158.212;-103.8;-97.2;-77.75
880;-113.122;-134.069;-144.988;-66.526;-54.76;-86.176;-145.919;-105.81;-128.245;-32.942;-107.072;-155.035;-101.205;-94.552;-80.457
890;-109.643;-129.298;-138.076;-68.509;-55.082;-86.63;-137.771;-109.292;-122.284;-36.343;-106.606;-150.704;-98.715;-92.277;-82.503
900;-104.482;-124.993;-132.451;-70.654;-55.541;-87.639;-131.629;-112.699;-116.647;-41.298;-104.874;-147.543;-96.618;-90.332;-83.133
910;-99.631;-122.214;-126.792;-72.321;-55.47;-88.054;-125.923;-115.661;-112.81;-45.946;-104.738;-146.369;-94.06;-87.905;-84.268
920;-96.118;-119.885;-121.633;-73.666;-55.351;-88.254;-120.967;-116.875;-109.812;-46.064;-103.965;-147.184;-90.534;-84.661;-85.588
930;-86.908;-109.657;-106.662;-63.698;-50.661;-86.897;-106.96;-111.529;-96.846;-38.599;-88.52;-142.07;-79.307;-71.815;-80.782
940;-79.037;-99.664;-92.075;-59.148;-48.242;-85.97;-92.014;-104.715;-86.237;-31.814;-73.07;-134.391;-70.753;-62.698;-78.441
950;-71.82;-88.024;-78.66;-55.923;-46.9;-85.95;-81.016;-97.015;-73.829;-25.522;-60.917;-131.059;-63.833;-55.765;-77.74
960;-63.412;-78.351;-67.894;-55.313;-45.559;-85.72;-71.179;-90.459;-62.609;-19.467;-55.294;-127.189;-59.267;-50.814;-76.672
970;-56.24;-67.593;-59.076;-56.689;-44.349;-85.791;-62.34;-84.647;-53.931;-21.082;-50.596;-123.502;-55.238;-47.102;-75.453
980;-50.235;-56.711;-51.949;-57.999;-43.184;-86.752;-53.661;-80.505;-45.259;-22.074;-50.38;-118.879;-51.153;-44.599;-73.248
990;-44.101;-46.733;-45.684;-59.063;-42.491;-88.896;-46.399;-80.292;-41.891;-25.05;-50.154;-113.441;-45.677;-41.797;-71.613
1000;-36.474;-36.812;-38.784;-60.491;-42.203;-90.711;-36.782;-82.351;-41.383;-28.874;-49.696;-107.439;-39.924;-38.02;-71.019
1010;-28.708;-27.835;-32.201;-62.468;-41.975;-92.483;-29.62;-82.897;-42.329;-32.808;-47.874;-102.075;-33.422;-34.02;-70.092
1020;-22.293;-20.998;-25.638;-63.825;-41.853;-94.211;-25.358;-85.253;-41.259;-36.756;-46.491;-95.4;-27.815;-29.676;-69.377
1030;-16.096;-14.406;-19.605;-65.302;-42.16;-95.078;-17.682;-88.771;-41.891;-39.965;-44.748;-88.79;-23.897;-24.662;-69.616
1040;-9.164;-6.876;-12.578;-66.468;-42.601;-94.274;-14.838;-92.367;-40.938;-43.773;-42.992;-83.968;-18.633;-21.744;-69.189
1050;-1.659;-1.373;-4.879;-68.552;-43.844;-91.881;-10.245;-94.715;-39.769;-48.643;-42.865;-75.882;-11.843;-19.671;-67.378
1060;4.62;4.167;1.726;-71.379;-44.781;-88.467;-4.762;-92.137;-38.428;-53.817;-41.523;-67.554;-5.701;-18.195;-66.858
1070;10.25;9.07;6.65;-72.38;-46.18;-83.8;-0.37;-88.35;-36.93;-59.19;-38.45;-60.31;-0.91;-17.41;-67.35
1080;17.948;13.405;11.726;-71.981;-47.802;-78.692;3.958;-88.743;-34.28;-66.499;-36.601;-53.339;3.391;-16.68;-66
1090;26.555;17.947;14.875;-72.462;-48.139;-73.831;9.032;-89.313;-34.018;-73.856;-34.738;-46.401;7.817;-16.392;-63.727
1100;34.97;21.456;17.16;-73.313;-47.765;-67.973;13.121;-88.332;-34.776;-79.929;-30.81;-38.916;13.327;-16.32;-62.068
1110;44.363;24.351;22.324;-74.914;-47.418;-63.252;17.863;-83.944;-35.012;-83.218;-30.755;-30.988;19.43;-15.881;-60.032
1120;54.642;28.152;27.665;-76.112;-47.604;-59.2;25.312;-77.225;-34.16;-84.844;-32.45;-23.35;25.114;-15.451;-56.79
1130;64.97;31.659;34.402;-76.383;-47.986;-56.143;31.573;-70.975;-34.481;-84.573;-30.246;-17.471;30.452;-16.463;-52.051
1140;75.203;35.751;38.874;-75.13;-47.625;-53.683;39.301;-64.87;-36.713;-83.661;-28.03;-12.68;35.142;-18.705;-47.895
1150;83.464;40.489;43.817;-73.087;-47.142;-50.317;48.587;-58.934;-35.623;-81.195;-27.539;-7.869;39.301;-21.785;-46.329
1160;91.164;46.292;48.28;-71.037;-47.713;-47.613;54.55;-51.412;-27.215;-79.649;-26.539;-2.465;43.609;-25.333;-44.406
1170;98.896;52.367;53.309;-68.918;-48.573;-45.022;60.778;-45.413;-28.371;-82.293;-26.316;4.955;45.335;-28.46;-41.915
1180;105.929;57.293;59.036;-68.333;-48.658;-42.21;63.84;-41.138;-27.912;-83.206;-29.425;9.942;45.887;-29.919;-40.939
1190;113.032;61.694;63.938;-67.558;-48.369;-37.211;64.505;-40.043;-24.388;-82.583;-32.533;13.275;44.986;-33.05;-38.751
1200;120.669;64.939;66.368;-65.202;-47.878;-31.294;66.348;-41.606;-17.896;-82.332;-37.158;17.794;43.371;-36.926;-36.206
1210;127.456;68.646;69.59;-61.791;-47.258;-22.591;68.441;-41.934;-11.738;-80.599;-39.225;22.748;42.799;-39.422;-33.713
1220;132.864;70.41;72.158;-59.327;-46.857;-12.327;74.23;-41.511;-8.278;-79.628;-40.824;28.463;41.739;-42.254;-31.92
1230;139.539;71.615;74.183;-58.049;-46.253;-1.622;79.347;-40.643;-4.891;-78.784;-41.592;34.034;39.517;-45.77;-31.719
1240;145.485;71.668;76.782;-57.241;-45.344;7.668;84.762;-39.433;-0.146;-76.741;-42.361;37.584;35.615;-49.773;-32.129
1250;151.661;71.079;80.4;-56.353;-44.394;15.107;90.215;-36.44;4.261;-72.355;-44.463;38.301;29.691;-54.875;-31.159
1260;157.564;72.549;83.635;-55.214;-43.838;20.948;101.636;-32.309;8.416;-67.764;-41.698;38.523;22.472;-60.334;-29.966
1270;162.965;76.07;85.457;-54.113;-42.873;27.415;115.285;-23.357;11.782;-59.858;-38.547;36.61;16.223;-64.348;-29.297
1280;167.74;78.777;87.726;-52.631;-40.848;34.824;125.957;-14.267;16.793;-57.532;-33.085;35.95;10.99;-67.987;-29.265
1290;170.232;80.69;88.85;-50.829;-38.468;41.801;134.543;-5.927;22.025;-55.258;-27.626;36.505;4.922;-69.793;-29.125
1300;170.348;84.599;88.007;-48.952;-36.478;47.988;141.455;-2.309;25.008;-51.99;-18.902;31.398;-2.343;-71.853;-29.427
1310;171.889;87.166;86.985;-47.666;-35.92;54.157;148.482;4.373;26.808;-46.814;-9.78;26.99;-10.279;-73.852;-30.292
1320;172.592;90.184;85.632;-46.672;-35.328;60.776;155.712;10.928;29.896;-40.48;-2.192;25.488;-18.968;-76.088;-31.28
1330;171.19;92.168;84.786;-44.155;-33.936;67.52;159.933;22.41;33.526;-32.787;4.831;24.779;-28.084;-78.47;-33.113
1340;166.683;92.748;84.952;-39.973;-32.178;72.661;162.098;33.828;38.891;-24.293;11.853;26.5;-37.289;-80.163;-35.417
1350;160.246;93.74;83.848;-35.764;-30.8;74.408;163.213;44.822;43.151;-15.589;15.346;29.59;-46.22;-83.038;-37.628
1360;153.409;94.14;80.007;-30.895;-29.486;75.593;162.826;52.63;46.542;-8.146;23.657;32.657;-55.353;-85.633;-42.512
1370;146.326;93.875;74.932;-25.815;-27.709;78.354;158.702;58.745;48.818;-3.271;33.931;33.985;-65.054;-87.758;-48.24
1380;139.22;93.429;69.731;-21.154;-25.094;81.874;153.219;64.753;51.718;-1.13;41.552;35.891;-75.299;-89.125;-53.29
1390;131.981;92.437;65.858;-17.358;-23.884;86;146.247;71.345;54.979;1.2;49.164;38.836;-85.822;-89.573;-58.201
1400;124.79;90.685;61.039;-14.753;-21.976;90.323;137.456;77.279;54.373;5.175;55.368;44.481;-94.593;-88.419;-61.076
1410;117.796;88.618;55.353;-13.038;-19.397;92.234;132.042;80.891;47.011;9.291;61.256;51.24;-103.969;-86.41;-62.698
1420;110.121;86.087;48.29;-10.991;-16.033;92.964;128.428;83.447;49.139;14.602;67.762;60.344;-111.646;-84.81;-63.76
1430;101.435;83.252;40.294;-7.009;-14.07;93.212;128.248;85.547;49.964;24.866;74.509;71.9;-118.235;-83.659;-64.355
1440;92.359;80.198;32.546;-2.086;-13.846;88.923;129.865;89.197;50.446;35.457;81.251;80.646;-124.139;-83.084;-65.511
1450;83.053;77.092;25.553;2.832;-14.059;82.799;130.589;95.203;49.557;42.906;87.468;86.667;-129.15;-82.048;-66.432
1460;73.313;74.259;18.657;8.919;-14.896;75.096;129.55;101.713;48.836;48.557;94.11;90.439;-134.519;-82.162;-67.149
1470;64.391;72.059;11.437;16.28;-15.649;64.98;126.337;108.463;51.213;52.884;99.014;93.154;-139.686;-82.533;-66.386
1480;53.66;68.981;5.594;24.682;-16.48;55.791;124.69;116.657;52.847;58.987;105.117;95.118;-143.814;-81.603;-65.16
1490;41.946;64.444;-0.441;33.869;-17.506;48.439;121.361;128.422;53.016;65.778;111.213;98.531;-146.68;-79.537;-64.585
1500;28.618;59.557;-6.753;42.989;-18.322;40.852;117.83;138.541;52.75;72.643;118.141;106.396;-147.932;-77.558;-64.326
1510;14.807;53.659;-14.037;51.353;-18.914;35.282;110.632;146.587;52.438;78.077;121.426;115.424;-148.618;-76.562;-64.375
1520;2.058;48.194;-20.479;57.131;-19.475;29.52;100.977;149.359;52.963;80.553;121.508;122.474;-151.299;-78.932;-65.134
1530;-11.752;40.771;-30.499;58.116;-21.876;19.819;86.698;153.604;51.211;83.266;115.956;127.181;-158.24;-84.505;-69.128
1540;-25.661;32.153;-40.313;60.565;-23.88;9.989;75.579;157.93;47.937;88.003;110.404;132.626;-164.178;-88.018;-72.284
1550;-37.554;21.945;-50.543;62.641;-25.538;2.166;63.521;166.483;43.313;93.526;104.541;142.676;-167.488;-88.953;-75.246
1560;-50.528;12.139;-60.171;67.257;-26.748;-5.352;51.497;169.983;39.875;97.201;99.394;154.699;-169.291;-88.217;-76.96
1570;-61.821;1.636;-67.454;74.281;-28.223;-13.804;37.632;172.484;36.789;99.735;92.559;165.859;-170.695;-85.43;-77.919
1580;-73.11;-8.161;-75.811;79.946;-30.743;-23.421;25.057;173.16;35.395;102.097;87.25;174.891;-172.21;-80.877;-79.532
1590;-82.738;-16.96;-82.844;85.03;-33.308;-30.931;16.007;174.924;33.909;102.713;81.941;180.84;-173.781;-73.782;-82.788
1600;-91.815;-25.32;-88.927;91.833;-35.437;-35.746;8.545;173.872;34.179;101.557;78.836;183.775;-174.549;-63.309;-83.88
1610;-100.999;-33.472;-93.112;98.305;-37.447;-40.509;0.323;166.779;33.887;100.636;73.997;186.972;-173.912;-54.542;-83.452
1620;-109.559;-42.639;-96.592;104.098;-39.451;-45.33;-6.248;159.894;32.937;102.486;70.294;188.956;-170.466;-45.579;-82.903
1630;-119.997;-51.29;-99.234;111.294;-40.977;-49.681;-10.865;152.567;31.178;105.497;65.648;190.804;-164.106;-36.018;-80.399
1640;-131.166;-61.194;-101.829;118.72;-39.713;-54.695;-14.041;148.703;29.647;108.785;61.003;192.679;-158.892;-24.89;-78.575
1650;-141.392;-70.527;-103.968;126.575;-37.981;-59.985;-16.138;145.64;28.77;110.749;58.801;191.626;-153.868;-13.538;-78.542
1660;-149.972;-80.433;-102.906;134.552;-36.222;-63.966;-18.612;143.226;28.942;113.763;58.352;190.549;-146.901;-2.988;-77.93
1670;-155.836;-91.108;-100.988;140.137;-34.179;-67.906;-22.846;143.407;27.505;116.568;57.421;185.302;-137.552;7.625;-76.618
1680;-160.501;-101.041;-99.237;141.957;-31.872;-71.979;-27.618;145.425;26.443;115.258;56.679;176.417;-126.574;18.123;-74.636
1690;-164.954;-109.829;-96.636;144.044;-30.834;-73.465;-32.47;147.883;25.807;112.41;55.937;167.321;-115;30.578;-72.673
1700;-168.181;-118.633;-94.241;143.683;-28.748;-75.01;-38.983;150.006;24.589;113.006;56.017;159.687;-105.065;43.039;-70.916
1710;-170.588;-127.895;-92.687;140.51;-25.619;-76.77;-45.33;151.846;22.622;113.25;58.186;153.349;-95.625;57.372;-66.942
1720;-173.164;-139.124;-90.418;133.412;-23.032;-76.905;-52.083;151.142;18.677;116.087;59.676;148.897;-86.55;71.647;-61.226
1730;-174.821;-149.052;-89.428;123.155;-20.897;-77.177;-59.796;148.441;14.276;113.014;58.134;143.092;-78.426;85.974;-55.946
1740;-175.284;-157.277;-89.721;111.461;-19.683;-77.517;-65.412;140.07;11.605;108.69;57.04;135.666;-70.301;99.404;-48.49
1750;-176.065;-165.236;-90.806;98.946;-19.513;-77.349;-70.64;131.734;8.686;102.825;55.081;125.817;-60.892;113.217;-41.404
1760;-176.79;-172.835;-90.466;86.61;-19.017;-77.537;-75.892;122.932;7.199;98.497;52.148;115.346;-49.928;128.836;-32.811
1770;-178.186;-180.168;-89.874;77.164;-17.966;-77.455;-81.273;114.833;4.738;94.81;51.308;108.259;-36.881;146.679;-24.488
1780;-179.665;-186.337;-88.101;71.092;-16.561;-75.44;-84.771;102.37;1.749;92.826;51.372;100.526;-21.338;163.833;-16.306
1790;-180.764;-191.302;-85.545;64.326;-14.508;-71.065;-88.953;88.741;-2.214;86.163;51.382;93.621;-4.292;180.535;-10.523
1800;-183.266;-195.245;-80.64;57.763;-13.022;-63.832;-91.367;73.781;-4.251;78.211;49.622;85.399;11.277;196.12;-6.411
1810;-186.142;-198.887;-75.941;49.648;-11.548;-59.123;-95.963;60.174;-5.523;73.767;47.218;74.614;28.39;209.484;-3.117
1820;-189.148;-201.462;-70.359;40.799;-9.284;-57.385;-99.174;47.237;-6.535;70.752;46.63;61.228;48.037;221.443;-0.797
1830;-190.665;-202.41;-63.77;33.865;-7.192;-58.251;-101.623;33.938;-9.418;66.538;45.538;49.634;68.208;232.208;4.097
1840;-190.436;-201.8;-57.11;26.425;-5.458;-59.241;-106.932;20.417;-12.392;61.852;44.211;37.432;88.634;240.132;12.684
1850;-189.67;-200.434;-50.714;16.637;-3.858;-59.728;-113.993;10.312;-15.418;55.943;43.636;25.971;108.821;248.019;20.377
1860;-189.182;-199.298;-45.903;7.894;-1.724;-58.27;-121.269;5.866;-16.572;49.546;42.52;15.095;128.163;257.182;29.919
1870;-189.215;-198.006;-43.761;-0.783;-0.359;-58.399;-126.286;0.068;-17.621;42.748;39.661;8.739;144.697;265.039;41.778
1880;-187.4;-196.588;-43.161;-12.444;0.073;-59.335;-131.218;-5.458;-19.232;36.657;37.039;0.086;157.029;270.716;53.003
1890;-182.269;-194.418;-42.259;-24.942;-0.884;-60.634;-135.041;-13.219;-22.913;30.328;34.127;-11.917;170.739;273.714;65.706
1900;-176.792;-192.738;-38.152;-37.069;-3.44;-62.243;-137.841;-20.447;-26.251;23.559;29.281;-22.415;183.601;275.342;81.033
1910;-172.345;-189.953;-35.574;-48.902;-4.259;-63.721;-141.388;-28.499;-29.343;14.886;23.07;-34.007;195.006;277.086;95.381
1920;-169.338;-186.268;-34.15;-58.93;-5.378;-65.535;-146.076;-40.786;-30.978;5.086;17.463;-44.574;204.872;279.77;108.159
1930;-166.452;-182.291;-32.377;-67.611;-5.954;-67.583;-150.218;-55.643;-33.662;-4.57;14.837;-51.396;213.639;282.753;121.721
1940;-163.764;-177.572;-31.339;-77.461;-5.112;-69.902;-154.189;-69.734;-36.614;-13.766;11.756;-54.539;222.24;283.621;137.314
1950;-161.981;-172.607;-29.481;-84.546;-5.04;-70.626;-157.08;-83.749;-40.73;-24.034;7.968;-57.334;231.583;284.915;154.313
1960;-159.17;-168.261;-28.01;-89.745;-5.268;-69.979;-157.836;-98.003;-44.516;-33.637;0.628;-61.928;240.414;284.823;169.119
1970;-154.309;-163.057;-26.669;-92.952;-5.167;-69.455;-157.903;-109.263;-48.164;-44.185;-6.194;-67.61;251.313;286.017;183.101
1980;-148.674;-157.892;-24.407;-95.193;-4.919;-70.738;-158.417;-119.444;-48.6;-48.583;-13.528;-73.171;265.514;286.51;198.059
1990;-141.986;-152.932;-21.886;-96.931;-3.324;-73.196;-159.634;-128.003;-49.141;-54.022;-21.103;-77.555;283.018;285.646;213.239
2000;-134.092;-147.24;-17.604;-96.757;-1.681;-76.553;-161.051;-137.672;-50.812;-60.452;-28.018;-80.946;299.379;283.439;227.709
2010;-125.103;-138.932;-13.145;-95.462;-0.314;-79.452;-161.705;-146.903;-53.276;-66.407;-33.986;-83.839;312.679;280.684;240.852
2020;-113.728;-129.081;-6.981;-95.407;1.303;-81.121;-163.487;-155.935;-58.228;-73.952;-39.945;-88.44;322.194;278.035;255.919
2030;-100.597;-119.691;1.217;-94.641;5.33;-82.014;-165.462;-163.011;-62.152;-81.586;-44.37;-93.476;329.226;275.737;273.051
2040;-86.105;-110.251;8.596;-93.197;11.346;-83.919;-166.303;-168.48;-63.527;-87.472;-48.794;-99.76;333.931;270.898;291.051
2050;-71.142;-101.476;14.255;-91.326;18.135;-88.375;-165.406;-174.36;-62.418;-91.917;-50.945;-107.183;336.654;263.599;308.331
2060;-55.833;-92.723;20.894;-88.946;25.172;-89.258;-162.541;-179.945;-62.433;-98.681;-54.451;-114.633;336.982;258.069;325.474
2070;-41.286;-83.106;25.243;-87.279;32.175;-88.127;-159.257;-185.185;-63.16;-104.566;-56.567;-120.556;334.908;251.166;341.995
2080;-25.757;-73.139;29.811;-86.422;39.715;-82.807;-157.366;-188.203;-64.771;-108.703;-61.422;-125.697;333.763;241.855;355.316
2090;-8.654;-62.269;33.828;-84.072;47.807;-78.259;-153.666;-189.76;-65.269;-114.034;-66.857;-131.207;333.466;232.894;366.128
2100;10.772;-49.331;38.677;-80.568;56.44;-71.254;-149.39;-190.614;-65.942;-117.628;-74.079;-136.103;332.04;223.298;376.163
2110;31.992;-32.524;44.474;-77.323;65.462;-65.143;-142.797;-191.022;-66.537;-119.381;-76.841;-140.05;330.437;212.526;383.902
2120;54.927;-12.956;52.855;-72.2;77.047;-55.451;-137.363;-188.295;-64.637;-122.121;-79.171;-145.934;331.499;202.575;387.623
2130;78.655;6.684;63.676;-65.618;89.566;-43.89;-131.581;-188.426;-62.978;-126.994;-80.448;-149.861;334.27;195.334;388.612
2140;101.632;27.855;76.25;-58.874;101.759;-32.713;-129.127;-190.102;-61.953;-130.941;-81.788;-152.161;335.237;190.421;388.687
2150;126.317;51.109;87.091;-52.03;115.859;-21.561;-127.745;-191.684;-62.148;-134.149;-83.895;-155.091;334.771;183.992;388.014
2160;151.308;76.709;98.617;-45.439;129.243;-9.873;-127.262;-190.974;-62.957;-136.377;-87.937;-157.934;333.472;178.788;386.672
2170;178.12;104.806;111.057;-38.121;143.461;4.913;-125.774;-187.803;-65.308;-137.611;-90.792;-158.621;332.375;171.357;385.599
2180;204.734;132.221;122.832;-28.764;158.64;20.534;-124.354;-183.937;-66.308;-138.25;-92.909;-158.855;330.916;164.099;383.81
2190;230.331;158.566;134.974;-18.741;174.319;36.742;-122.411;-181.124;-67.902;-137.223;-94.523;-157.906;327.876;157.012;379.294
2200;255.597;185.291;148.095;-7.342;191.742;51.327;-119.807;-177.894;-69.712;-134.83;-95.999;-157.906;323.269;146.283;372.83
2210;278.703;213.01;163.808;4.204;209.141;65.058;-117.503;-175.71;-70.291;-133.182;-99.152;-158.414;317.692;135.152;365.803
2220;299.961;241.749;180.196;17.04;226.487;80.753;-115.495;-172.611;-69.51;-131.658;-102.046;-159.709;308.272;122.643;357.835
2230;321.967;270.414;195.724;31.822;241.51;99.541;-112.418;-170.219;-69.469;-131.614;-101.981;-159.978;295.655;108.266;348.76
2240;341.487;299.658;213.717;47.392;254.208;119.88;-109.861;-168.868;-69.185;-132.086;-101.799;-159.688;279.786;93.225;337.484
2250;359.651;326.748;229.564;62.563;267.876;141.032;-107.425;-167.247;-67.309;-132.639;-101.829;-160.039;262.953;78.73;326.065
2260;375.64;351.036;243.534;78.28;281.563;164.061;-108.971;-163.086;-66.236;-134.83;-101.465;-160.465;246.33;62.698;312.95
2270;387.53;372.946;255.008;95.572;289.786;184.626;-108.33;-159.011;-64.403;-135.414;-99.68;-161.906;231.138;43.709;296.734
2280;397.046;394.728;265.092;113.908;293.537;203.194;-106.855;-157.577;-63.063;-135.153;-98.892;-163.508;216.265;24.913;279.441
2290;405.593;415.596;274.447;130.481;294.497;219.288;-105.127;-156.935;-61.945;-133.952;-98.112;-164.766;200.912;7.881;261.881
2300;413.594;437.451;284.63;145.637;295.021;232.201;-104.374;-154.985;-61.804;-133.743;-100.89;-164.505;186.832;-6.891;241.727
2310;420.166;458.255;293.684;161.115;295.263;244.234;-103.759;-150.341;-58.754;-133.593;-102.168;-164.342;173.29;-23.257;221.28
2320;425.326;479.581;302.561;177.394;294.349;256.026;-102.868;-146.617;-54.273;-136.109;-104.306;-165.728;160.581;-38.668;203.806
2330;428.95;497.629;310.021;192.677;294.121;267.13;-101.497;-144.331;-49.217;-135.44;-103.312;-166.697;146.942;-51.204;188.27
2340;428.292;512.72;317.241;205.273;293.308;279.223;-100.172;-141.041;-44.47;-134.39;-104.917;-164.786;131.073;-61.811;172.738
2350;423.52;523.898;323.567;216.2;291.479;290.465;-95.601;-135.189;-40.97;-133.161;-106.081;-162.154;114.263;-71.884;156.185
2360;414.839;529.934;329.132;225.389;287.046;303.53;-88.723;-130.93;-39.458;-131.539;-109.001;-160.183;96.117;-80.741;138.826
2370;402.021;531.952;334.572;232.793;280.033;313.556;-81.71;-127.811;-39.277;-127.978;-110.732;-159.924;74.847;-91.132;122.251
2380;386.485;532.737;337.25;238.498;271.088;320.286;-73.806;-123.021;-38.884;-124.105;-112.39;-160.731;52.971;-103.349;106.494
2390;368.419;530.97;336.103;243.863;262.397;328.167;-68.094;-118.149;-36.025;-119.052;-113.68;-160.843;33.486;-116.694;89.699
2400;346.371;524.87;333.206;249.234;252.861;334.852;-63.629;-113.31;-33.117;-112.023;-113.956;-160.999;16.401;-127.983;72.593
2410;323.208;514.583;326.706;254.48;242.025;339.201;-55.046;-110.088;-30.37;-105.636;-110.981;-159.914;-0.097;-139.825;55.626
