timepoints (min);01: bdA+.1;02: bdA+.2;03: bdA+.3;04: crybdIm1+.1;05: crybdIm1+.2;06: crybdIm1+.3;07: bdA-.1;08: bdA-.2;09: bdA-.3;10: crybdIm1-.1;11: crybdIm1-.2;12: crybdIm1-.3;13: frq1+.1;14: frq1+.2;15: frq1+.3
1080;-218.859;-243.372;-179.221;-395.18;-287.556;-218.446;-124.362;-191.193;-292.439;-228.026;-213.668;-236.838;-375.615;-341.894;-339.851
1090;-223.763;-239.158;-166.593;-388.508;-271.606;-225.073;-122.672;-189.232;-285.913;-222.936;-208.637;-232.622;-368.409;-330.764;-336.531
1100;-228.347;-234.947;-153.333;-382.453;-257.4;-231.893;-121.36;-186.413;-279.973;-219.36;-204.333;-228.947;-360.973;-320.547;-332.24
1110;-231.822;-233.457;-139.849;-376.734;-244.868;-238.477;-119.743;-183.934;-272.855;-216.77;-200.934;-223.921;-352.872;-311.207;-327.398
1120;-235.384;-230.707;-126.777;-370.419;-234.145;-243.737;-117.778;-181.95;-266.442;-213.287;-198.222;-216.934;-342.628;-301.953;-323.34
1130;-239.65;-227.312;-115.188;-364.872;-223.675;-248.427;-115.863;-180.402;-258.12;-208.077;-194.517;-210.944;-333.244;-291.004;-319.658
1140;-243.829;-224.592;-105.856;-360.252;-214.406;-250.873;-114.779;-179.027;-249.055;-203.898;-189.757;-204.542;-323.198;-280.047;-316.634
1150;-247.037;-224.825;-96.25;-355.938;-207.762;-252.35;-113.525;-176.325;-240.837;-200.163;-185.4;-199.137;-314.475;-269.837;-312.175
1160;-249.175;-224.78;-87.981;-351.547;-203.603;-254.178;-112.379;-169.824;-235.81;-197.658;-180.049;-193.362;-306.762;-258.751;-305.739
1170;-251.152;-224.026;-78.807;-346.03;-200.739;-254.85;-110.726;-163.902;-228.402;-194.993;-175.156;-187.87;-299.722;-246.626;-298.865
1180;-252.619;-220.556;-69.281;-340.08;-197.525;-252.123;-108.614;-158.211;-221.581;-192.346;-169.409;-180.086;-292.858;-235.168;-292.309
1190;-254.905;-215.161;-58.917;-333.06;-194.815;-249.429;-106.649;-153.274;-214.363;-187.69;-164.774;-173.5;-285.22;-224.476;-285.56
1200;-257.334;-207.341;-50.04;-326.416;-192.101;-244.833;-104.256;-150.932;-203.551;-182.555;-160.487;-166.805;-277.748;-214.995;-279.005
1210;-256.275;-180.392;-20.094;-308.059;-170.012;-237.058;-99.631;-141.846;-187.34;-173.541;-154.321;-155.965;-263.045;-192.503;-268.095
1220;-254.668;-153.215;9.999;-288.457;-146.343;-227.689;-94.7;-132.759;-171.083;-164.228;-146.909;-144.839;-247.916;-168.507;-257.006
1230;-254.512;-130.925;35.043;-269.068;-124.161;-220.032;-89.166;-125.809;-155.149;-156.474;-138.791;-136.342;-236.408;-146.398;-246.817
1240;-253.128;-110.054;54.591;-252.095;-106.377;-215.293;-83.636;-118.24;-142.572;-148.742;-131.759;-128.683;-225.479;-126.515;-236.984
1250;-252.244;-90.902;71.687;-237.669;-92.651;-211.922;-78.44;-112.642;-129.842;-141.082;-125.271;-122.064;-214.149;-107.638;-227.411
1260;-250.636;-73.47;83.52;-225.014;-80.153;-207.091;-73.541;-105.007;-116.369;-134.12;-120.25;-116.487;-203.39;-88.538;-217.058
1270;-248.611;-58.857;91.247;-212.863;-70.102;-199.857;-68.657;-95.47;-104.174;-127.595;-116.003;-111.796;-191.38;-68.835;-205.556
1280;-246.934;-47.513;99.251;-200.534;-63.198;-190.751;-63.098;-85.956;-91.941;-120.368;-110.036;-105.216;-179.749;-49.024;-193.172
1290;-245.352;-37.529;107.514;-186.143;-56.389;-181.485;-57.363;-77.627;-77.577;-113.303;-104.614;-97.375;-169.025;-28.391;-181.491
1300;-243.785;-29.246;118.282;-171.219;-46.139;-171.143;-51.642;-70.874;-61.893;-104.909;-97.947;-88.954;-158.429;-5.461;-169.819
1310;-240.854;-20.032;130.611;-156.693;-32.446;-160.277;-46.048;-66.299;-46.214;-96.712;-91.373;-79.721;-146.435;17.73;-157.775
1320;-236.313;-8.276;143.434;-140.898;-19.86;-147.747;-40.196;-60.663;-31.238;-89.63;-84.979;-70.365;-135.478;41.986;-146.12
1330;-230.758;7.224;156.428;-123.048;-7.195;-134.305;-34.194;-52.195;-15.575;-83.514;-79.671;-56.916;-125.774;67.234;-132.245
1340;-224.509;27.143;169.359;-103.926;6.341;-118.107;-27.533;-42.304;0.219;-76.025;-75.184;-44.695;-115.199;93.753;-117.26
1350;-217.57;47.04;180.85;-85.58;19.7;-101.18;-20.93;-31.89;15.25;-65.4;-70.76;-33.19;-102.28;121.39;-102.14
1360;-211.405;70.447;191.072;-67.009;33.745;-82.05;-13.934;-20.945;27.969;-54.989;-62.981;-24.293;-90.108;149.898;-85.562
1370;-204.505;93.676;200.534;-47.211;49.507;-61.409;-5.805;-9.979;40.687;-45.294;-55.24;-16.978;-77.568;178.778;-67.889
1380;-195.429;114.701;210.163;-27.486;65.886;-39.68;2.318;4.439;53.941;-36.863;-48.445;-8.933;-63.538;205.887;-50.122
1390;-186.525;135.882;220.704;-5.721;82.442;-16.972;10.45;19.103;68.525;-24.72;-41.192;-2.563;-48.698;232.993;-29.133
1400;-177.918;159.484;229.48;17.613;101.518;5.44;17.859;32.47;83.078;-12.69;-29.43;4.385;-31.069;260.173;-9.482
1410;-170.085;183.008;238.088;42.111;123.383;30.235;25.265;41.423;99.484;1.958;-18.767;13.509;-10.451;286.475;8.236
1420;-162.312;205.654;246.678;67.043;146.281;55.555;33.2;50.361;112.111;15.576;-6.93;23.846;11.841;310.846;26.23
1430;-154.861;226.056;255.527;93.185;169.079;79.614;40.726;60.423;124.714;29.353;3.33;33.313;34.373;334.313;45.787
1440;-145.461;245.461;264.983;119.7;193.064;105.113;47.73;70.91;137.08;41.257;14.178;43.497;55.654;357.062;66.566
1450;-134.778;262.796;275.793;146.147;217.173;130.356;54.884;83.584;145.327;53.742;26.333;52.782;79.096;379;88.898
1460;-124.031;277.74;286.488;173.867;240.876;156.036;62.045;94.693;155.351;68.383;41.636;67.554;105.113;396.67;112.988
1470;-113.261;292.898;296.789;201.843;262.951;181.857;71.525;106.335;165.218;83.168;55.922;82.142;131.702;411.669;137.259
1480;-99.895;305.593;305.251;229.382;283.413;207.079;78.728;118.244;172.995;100.254;71.061;99.471;160.337;424.347;162.543
1490;-86.905;315.527;312.871;256.566;301.683;232.589;85.931;128.268;182.834;116.498;86.86;117.665;188.507;436.714;186.216
1500;-73.809;322.765;318.807;283.233;320.57;259.038;91.294;135.539;192.656;131.377;103.527;137.252;216.031;447.216;208.715
1510;-60.972;327.925;323.498;309.49;337.972;284.896;96.529;140.158;202.617;145.1;118.778;156.463;243.165;455.013;230.963
1520;-46.788;332.948;328.051;334.473;354.632;308.386;101.765;144.489;213.403;159.006;133.587;173.586;268.822;459.564;251.917
1530;-31.231;342.163;330.465;357.575;371.636;329.217;105.262;148.659;224.089;174.677;146.621;187.532;294.374;462.131;270.182
1540;-16.209;351.309;332.034;377.944;387.313;349.807;107.983;152.416;231.102;190.365;161.76;200.48;320.151;460.108;287.213
1550;-0.838;362.772;333.318;396.26;398.318;370.172;108.983;157.032;235.143;204.268;174.697;212.577;345.025;451.858;304.037
1560;13.649;373.369;330.946;414.51;406.024;390.855;109.302;160.952;239.14;215.676;187.663;222.368;367.843;441.33;321.221
1570;29.21;381.613;327.956;430.944;412.662;411.197;109.563;165.185;241.218;227.06;198.938;232.069;388.879;428.604;339.657
1580;45.897;387.249;324.805;444.671;416.091;430.463;110.345;166.863;241.487;238.405;210.475;237.038;407.76;413.598;353.909
1590;63.92;389.935;321.924;457.191;416.852;447.224;110.736;168.726;241.7;247.257;222.923;241.197;425.859;397.269;365.324
1600;82.448;391.36;319.528;469.928;417.648;463.368;111.128;169.584;241.24;251.456;235.56;242.912;437.696;378.096;374.36
1610;100.186;390.622;317.932;482.141;417.658;477.282;110.056;168.861;240.053;254.837;244.013;246.256;447.341;354.997;379.238
1620;118.037;388.849;315.266;491.862;417.732;489.742;106.144;168.054;238.906;258.099;252.537;247.198;451.94;328.459;381.14
1630;134.289;387.781;308.509;500.404;417.16;499.281;102.232;162.323;235.652;260.755;257.702;246.678;453.525;300.697;382.995
1640;150.852;384.953;301.943;506.41;413.892;505.781;98.624;155.192;228.371;258.061;257.939;246.71;453.544;271.877;379.255
1650;167.631;380.714;293.852;510.169;406.523;512.06;95.563;148.06;221.078;255.438;253.409;247.018;450.022;242.643;372.84
1660;184.855;373.626;285.521;512.557;395.978;515.307;92.143;142.558;212.178;251.504;247.35;243.872;441.631;212.67;364.605
1670;202.584;367.188;276.023;512.398;385.379;517.774;87.505;137.887;204.661;247.162;239.499;239.38;431.478;182.768;354.132
1680;219.978;358.995;264.982;510.283;372.708;519.359;82.801;131.972;197.134;240.778;232;232.327;417.828;153.305;342.43
1690;236.532;350.059;251.356;507.021;359.781;517.838;79.141;124.493;189.017;234.344;222.169;225.753;400.873;124.412;326.517
1700;251.373;339.443;237.713;502.532;345.975;513.64;75.21;116.04;180.541;226.225;211.576;219.717;379.172;96.385;306.184
1710;266.289;328.518;224.674;494.824;332.319;508.207;71.284;108.346;173.341;218.651;200.022;210.185;353.637;70.277;283.571
1720;281.866;315.947;211.525;484.517;318.936;499.126;64.19;100.473;165.726;211.108;189.452;200.216;326.451;44.819;260.771
1730;294.537;303.261;197.322;473.843;303.593;489.646;58.48;92.826;158.295;200.862;178.075;188.256;297.994;19.657;236.647
1740;305.917;288.425;182.442;460.85;288.1;477.67;52.775;86.662;148.023;188.853;166.136;175.159;269.03;-5.971;212.314
1750;315.657;273.147;164.56;444.867;271.211;463.464;48.221;83.466;137.793;178.036;154.009;159.783;239.081;-30.949;187.231
1760;324.596;257.851;148.394;427.233;255.083;447.993;42.687;78.953;124.876;167.211;142.842;142.146;208.301;-55.228;160.99
1770;330.953;241.372;129.442;407.662;238.722;428.952;36.679;73.405;111.837;156.385;131.517;125.865;177.12;-78.968;134.228
1780;335.524;221.303;111.366;385.462;220.771;407.166;30.334;67.531;98.81;142.611;119.865;110.749;146.378;-101.436;108.581
1790;338.837;198.341;90.917;361.533;202.627;385.547;24.053;62.579;85.934;127.434;105.72;94.851;116.088;-120.699;84.508
1800;340.789;175.301;68.435;338.039;185.437;361.668;19.099;58.192;73.017;112.399;92.466;78.167;85.444;-137.232;60.175
1810;340.474;147.372;45.865;308.88;166.201;334.185;13.497;52.585;57.538;95.636;77.488;60.981;51.385;-155.474;32.786
1820;337.96;118.048;23.6;277.681;147.37;304.183;7.894;46.888;42.686;78.592;62.89;43.354;18.08;-172.997;3.658
1830;332.968;88.401;2.262;245.884;129.968;273.59;1.218;39.971;28.491;61.506;48.487;26.697;-12.579;-189.883;-24.57
1840;325.243;59.851;-19.561;213.07;114.028;244.4;-5.727;32.041;14.517;45.212;33.51;11.41;-43.273;-206.95;-51.377
1850;316.997;32.843;-41.746;180.926;97.059;213.59;-12.561;24.45;1.13;31.119;16.669;-0.597;-70.288;-222.134;-75.963
1860;308.868;6.338;-63.606;149.568;78.53;181.174;-18.628;17.665;-10.297;17.465;1.356;-11.732;-95.25;-234.161;-98.873
1870;298.048;-19.983;-84.364;118.978;56.236;147.684;-23.425;8.964;-21.419;3.901;-13.961;-20.877;-118.237;-243.906;-118.745
1880;286.549;-45.873;-101.726;89.748;33.977;115.971;-28.152;1.743;-33.146;-9.058;-25.45;-29.502;-139.592;-252.836;-138.706
1890;275.354;-68.945;-119.861;61.117;12.84;84.972;-32.914;-3.985;-44.417;-19.003;-33.608;-38.822;-160.367;-260.92;-155.357
1900;263.855;-90.901;-135.89;32.912;-6.041;53.949;-37.677;-9.681;-55.604;-28.927;-40.892;-48.848;-179.302;-268.461;-169.822
1910;250.509;-109.27;-151.117;4.439;-23.119;22.954;-41.89;-15.326;-65.486;-39.581;-46.924;-57.708;-196.538;-275.931;-183.003
1920;234.618;-127.716;-165.262;-22.368;-39.87;-8.479;-45.783;-21.974;-74.279;-48.754;-52.488;-66.687;-212.314;-282.709;-195.443
1930;217.302;-144.207;-179.052;-48.215;-54.415;-39.644;-49.677;-28.655;-83.01;-56.032;-59.138;-75.017;-225.486;-288.612;-208.465
1940;198.298;-161.2;-191.441;-74.15;-69.492;-69.403;-54.05;-34.465;-92.146;-63.399;-64.411;-84.274;-236.313;-294.786;-218.56
1950;179.014;-177.281;-203.71;-98.978;-83.674;-97.706;-59.015;-39.852;-100.833;-70.902;-70.357;-93.412;-245.011;-300.862;-225.487
1960;159.575;-194.131;-216.868;-122.366;-97.927;-125.248;-63.926;-46.025;-109.313;-79.463;-77.252;-103.727;-251.524;-307.131;-231.669
1970;138.783;-209.439;-230.328;-144.203;-112.821;-151.141;-68.441;-52.684;-117.73;-88.895;-85.783;-113.727;-256.298;-312.639;-238.31
1980;118.192;-224.65;-242.61;-166.094;-126.549;-176.799;-72.335;-59.539;-126.123;-97.146;-94.196;-124.516;-260.886;-316.659;-245.578
1990;97.655;-238.087;-254.343;-185.69;-140.592;-199.872;-75.712;-66.258;-133.537;-104.448;-102.314;-134.807;-265.174;-320.059;-251.287
2000;76.797;-251.448;-263.815;-202.688;-154.658;-221.428;-78.633;-73.156;-141.109;-111.818;-109.568;-143.127;-269.383;-322.582;-254.407
2010;55.898;-264.906;-273.611;-218.528;-170.359;-242.001;-81.554;-78.403;-147.964;-119.601;-116.316;-149.454;-273.241;-324.804;-256.921
2020;35.865;-277.167;-280.684;-232.532;-185.75;-259.419;-83.8;-83.822;-153.772;-127.317;-122.192;-154.861;-277.611;-325.53;-259.497
2030;16.661;-286.578;-286.96;-243.737;-200.127;-273.745;-85.206;-88.821;-159.905;-134.993;-127.346;-159.614;-282.31;-325.775;-260.705
2040;-1.229;-292.615;-291.997;-252.359;-213.108;-288.331;-86.611;-94.937;-165.608;-140.425;-132.724;-163.669;-286.193;-325.632;-261.084
2050;-18.283;-298.135;-295.181;-261.001;-225.143;-301.055;-87.763;-101.432;-169.783;-145.939;-138.622;-165.804;-288.717;-324.953;-261.174
2060;-35.52;-300.619;-297.92;-266.846;-237.43;-310.949;-88.996;-108.2;-175.11;-149.054;-146.033;-168.549;-289.992;-323.502;-261.159
2070;-52.778;-302.069;-300.908;-270.389;-249.228;-318.141;-90.174;-115.247;-179.833;-152.046;-152.392;-170.993;-290.655;-321.316;-260.982
2080;-68.916;-302.328;-303.07;-272.906;-259.859;-324.229;-91.171;-121.142;-183.567;-155.603;-158.924;-173.93;-290.67;-317.392;-259.988
2090;-83.789;-301.899;-304.288;-274.334;-268.905;-330.419;-92.556;-126.512;-187.046;-160.077;-164.283;-176.706;-289.995;-312.956;-258.014
2100;-98.487;-300.887;-304.534;-275.432;-276.39;-334.283;-93.526;-132.105;-189.63;-163.832;-168.513;-180.074;-288.699;-308.243;-255.952
2110;-112.459;-299.857;-304.927;-276.608;-281.67;-336.217;-94.299;-136.923;-191.563;-166.994;-172.724;-183.694;-286.639;-303.501;-253.177
2120;-124.89;-298.502;-304.61;-277.601;-284.324;-336.99;-95.073;-139.721;-193.757;-170.668;-176.406;-186.553;-283.094;-297.655;-250.155
2130;-136.455;-297.459;-304.472;-278.316;-287.087;-338.138;-96.08;-143.015;-195.072;-174.604;-179.823;-188.695;-279.407;-291.41;-246.643
2140;-148.041;-296.788;-302.847;-278.175;-289.021;-339.305;-97.137;-146.4;-195.24;-179.505;-183.448;-191.05;-276.651;-284.817;-243.666
2150;-159.628;-296.495;-302.27;-276.948;-289.898;-340.672;-98.193;-149.577;-195.663;-184.214;-187.11;-193.364;-274.823;-276.989;-239.774
2160;-170.19;-297.334;-302.019;-275.745;-290.586;-341.527;-99.447;-152.36;-195.593;-188.484;-190.899;-195.833;-272.499;-267.742;-234.775
2170;-178.541;-298.039;-301.926;-274.873;-291.188;-341.934;-100.89;-155.199;-195.654;-193.16;-194.33;-198.465;-271.146;-258.368;-229.283
2180;-185;-298.557;-301.865;-274.13;-291.618;-342.308;-102.305;-157.139;-195.528;-197.748;-196.759;-200.074;-270.09;-247.756;-222.879
2190;-190.436;-298.497;-302.08;-273.179;-292.079;-342.537;-103.932;-159.268;-194.357;-202.163;-198.866;-201.884;-268.126;-236.817;-216.372
2200;-194.797;-298.366;-302.13;-272.353;-292.4;-342.91;-105.47;-160.983;-193.032;-205.568;-200.332;-203.56;-263.954;-226.258;-211.012
2210;-199.039;-297.723;-301.674;-271.17;-292.163;-342.607;-107.164;-162.193;-191.892;-208.694;-200.521;-204.59;-259.138;-215.68;-204.942
2220;-203.098;-296.877;-300.699;-269.64;-291.429;-341.502;-108.352;-162.52;-191.459;-210.092;-200.444;-204.901;-254.368;-203.534;-198.739
2230;-207.341;-296.207;-299.892;-268.273;-290.221;-340.161;-109.539;-162.454;-191.068;-211.07;-200.207;-203.545;-249.248;-191.67;-191.982
2240;-211.288;-295.709;-300.64;-266.252;-289.065;-338.428;-111.137;-161.89;-190.735;-211.079;-199.381;-201.061;-243.804;-181.457;-184.672
2250;-214.474;-294.97;-301.059;-263.633;-287.898;-336.634;-112.44;-161.326;-189.361;-211.502;-198.694;-198.746;-236.746;-172.885;-177.674
2260;-217.163;-294.088;-301.196;-260.596;-286.64;-333.97;-113.743;-160.963;-188.428;-211.412;-198.041;-195.538;-227.935;-163.952;-169.299
2270;-218.428;-292.833;-300.938;-257.237;-285.535;-331.379;-114.026;-161.379;-188.001;-211.688;-197.934;-191.928;-216.514;-154.999;-159.509
2280;-218.692;-291.261;-300.247;-254.004;-283.623;-328.524;-113.832;-161.502;-187.361;-210.957;-198.248;-188.324;-202.879;-146.074;-149.921
2290;-218.793;-288.469;-298.243;-251.04;-280.997;-325.612;-113.727;-161.473;-185.537;-210.16;-197.71;-184.64;-189.454;-136.114;-139.219
2300;-219.433;-286.484;-296.229;-248.116;-278.593;-323.586;-113.221;-160.559;-182.461;-208.48;-195.131;-179.735;-175.681;-124.07;-128.186
2310;-219.952;-284.623;-294.361;-245.081;-275.63;-321.69;-112.695;-159.735;-178.957;-207.221;-191.666;-173.459;-160.458;-110.607;-115.197
2320;-220.233;-283.268;-291.861;-241.952;-272.808;-319.283;-111.434;-157.177;-174.989;-205.441;-187.35;-167.023;-143.91;-97.178;-100.498
2330;-220.754;-281.044;-288.862;-238.677;-270.19;-316.814;-110.566;-153.553;-171.337;-202.564;-183.433;-161.884;-126.877;-83.017;-84.345
2340;-220.996;-277.909;-285.788;-235.408;-268.018;-314.708;-109.697;-150.145;-167.112;-198.701;-179.619;-155.526;-109.76;-67.135;-67.611
2350;-221.046;-275.036;-282.633;-232.295;-264.575;-312.383;-110.001;-146.852;-162.713;-194.957;-176.114;-149.377;-90.386;-49.983;-48.956
2360;-219.717;-272.291;-279.804;-229.022;-261.269;-310.443;-109.168;-143.705;-158.308;-191.178;-171.219;-141.748;-67.992;-31.884;-28.829
2370;-217.395;-269.615;-277.246;-225.669;-258.385;-308.495;-108.335;-140.178;-154.164;-187.157;-166.057;-134.959;-43.561;-13.317;-9.232
2380;-214.993;-266.481;-275.097;-222.168;-255.866;-306.149;-106.444;-136.048;-150.963;-182.228;-159.549;-128.894;-19.006;5.868;10.234
2390;-212.83;-262.539;-272.949;-218.637;-253.098;-303.717;-104.657;-131.108;-148.476;-176.898;-150.063;-120.949;6.425;26.386;30.433
2400;-209.775;-258.279;-268.999;-215.152;-250.422;-300.823;-103.166;-126.503;-146.403;-171.818;-141.25;-114.906;31.651;47.857;51.288
2410;-205.72;-253.774;-264.432;-211.423;-247.812;-298.103;-102.31;-121.695;-144.626;-167.11;-130.503;-107.214;57.098;69.681;72.71
2420;-201.783;-248.763;-259.628;-207.611;-245.354;-295.603;-101.935;-116.422;-142.523;-162.561;-117.766;-99.321;83.168;90.89;93.906
2430;-197.979;-242.335;-255.495;-203.953;-242.821;-292.988;-100.603;-111.6;-140.543;-157.223;-105.123;-89.949;110.215;111.309;113.617
2440;-194.07;-236.186;-249.541;-199.575;-240.338;-290.571;-99.196;-107.44;-136.61;-150.708;-94.433;-82.87;138.757;133.488;132.313
2450;-190.243;-228.997;-243.229;-194.652;-237.953;-287.993;-97.789;-102.935;-132.895;-144.84;-81.868;-76.138;166.481;157.026;152.225
2460;-186.75;-221.429;-236.71;-189.665;-235.894;-285.021;-96.338;-98.063;-129.491;-139.436;-69.603;-71.326;193.099;181.11;171.847
2470;-183.015;-214.303;-230.255;-184.255;-233.03;-281.737;-94.134;-94.567;-127.117;-135.097;-58.681;-65.881;219.503;204.073;192.491
2480;-178.84;-208.386;-222.343;-178.501;-228.852;-279.364;-91.93;-91.326;-121.819;-130.923;-51.123;-61.566;245.932;227.291;213.84
2490;-173.68;-202.337;-213.073;-172.95;-223.047;-275.559;-88.566;-89.441;-112.204;-127.121;-44.123;-54.81;271.19;252.462;235.779
2500;-168.949;-196.491;-201.815;-167.367;-217.568;-272.054;-85.385;-86.062;-102.375;-122.76;-38.709;-46.497;295.183;278.647;257.381
2510;-164.774;-190.985;-190.993;-161.543;-214.003;-265.662;-81.586;-82.668;-91.575;-117.952;-30.753;-40.072;317.206;304.15;277.226
2520;-161.204;-185.768;-181.436;-155.81;-210.057;-258.243;-78.332;-78.269;-82.241;-113.137;-22.793;-33.739;336.276;329.119;295.548
2530;-157.703;-181.698;-169.992;-150.051;-206.668;-251.799;-75.404;-74.303;-72.694;-107.532;-11.057;-26.486;352.879;353.652;313.146
2540;-154.123;-178.749;-160.101;-144.337;-203.954;-245.287;-71.626;-70.531;-64.196;-101.284;1.015;-15.508;368.483;376.732;326.737
2550;-149.483;-174.775;-150.371;-139.069;-201.746;-238.171;-66.154;-66.097;-54.994;-94.981;11.924;-5.826;383.252;396.652;339.872
2560;-144.903;-170.643;-141.451;-134.108;-200.303;-231;-60.683;-59.055;-45.883;-87.655;22.898;6.415;395.261;413.348;348.457
2570;-140.046;-165.695;-133.234;-129.378;-198.561;-223.99;-54.499;-52.691;-36.834;-78.65;34.945;18.93;404.364;428.975;355.466
2580;-134.014;-161.021;-125.846;-124.648;-196.419;-216.926;-48.623;-46.239;-27.868;-69.189;47.399;33.568;412.979;442.178;361.72
2590;-126.523;-155.935;-118.418;-120.193;-193.908;-211.266;-42.748;-39.248;-19.08;-59.659;61.916;47.007;419.739;451.422;366.077
2600;-118.012;-149.574;-111.069;-116.21;-192.349;-206.832;-36.741;-32.829;-9.132;-49.695;77.912;61.01;422.686;457.349;367.292
