timepoints (min);01: bdA+.1;02: bdA+.2;03: bdA+.3;04: crybdIm1+.1;05: crybdIm1+.2;06: crybdIm1+.3;07: bdA-.1;08: bdA-.2;09: bdA-.3;10: crybdIm1-.1;11: crybdIm1-.2;12: crybdIm1-.3;13: frq1+.1;14: frq1+.2;15: frq1+.3
1020;-143.443;-215.299;-138.615;-242.296;-179.537;-233.145;-81.034;-16.175;-6.754;-118.205;377.732;-89.312;-70.201;-119.141;-165.4
1030;-137.066;-197.834;-125.458;-233.755;-163.243;-231.861;-75.317;-13.28;-5.075;-112.091;363.739;-82.201;-53.813;-95.097;-148.923
1040;-134.013;-182.227;-114.253;-226.64;-148.853;-231.32;-70.333;-10.72;-3.76;-106.293;346.133;-76.04;-38.813;-77.16;-135.707
1050;-131.135;-169.457;-106.503;-221.503;-136.076;-231.171;-64.01;-8.839;-2.559;-101.938;330.914;-70.201;-26.309;-62.536;-124.487
1060;-128.254;-155.987;-98.379;-215.934;-125.96;-230.961;-58.384;-7.146;0.055;-96.979;317.655;-65.049;-14.985;-48.95;-114.598
1070;-124.846;-142.927;-89.299;-210.47;-117.03;-230.59;-51.799;-7.863;2.423;-92.521;303.359;-61.235;-5.829;-36.855;-104.415
1080;-121.342;-131.49;-79.821;-208.324;-111.237;-229.975;-45.87;-8.476;2.656;-86.75;290.717;-57.835;2.62;-26.394;-95.058
1090;-116.9;-121.95;-70.975;-205.675;-103.362;-229.412;-39.913;-7.85;4.175;-81.512;277.675;-55;10.65;-17.875;-84.75
1100;-109.974;-113.115;-61.153;-203.607;-92.75;-227.316;-34.506;-7.249;5.563;-76.212;266;-52.45;18.649;-9.758;-75.383
1110;-101.81;-106.051;-51.295;-201.752;-84.222;-225.14;-29.692;-6.612;8.155;-71.357;254.663;-49.796;26.315;-1.453;-65.997
1120;-93.622;-99.522;-41.76;-199.338;-76.06;-224.226;-25.284;-6;10.545;-65.795;244.399;-47.378;33.265;6.139;-55.908
1130;-85.185;-93.131;-31.381;-197.107;-67.208;-222.22;-21.774;-4.25;12.851;-60.798;235.071;-45.375;40.018;12.893;-46.161
1140;-77.035;-86.492;-21.504;-194.301;-60.939;-220.993;-18.393;-2.621;14.304;-56.179;225.626;-43.466;46.386;19.572;-36.659
1150;-53.465;-59.412;1.462;-175.407;-34.854;-208.805;-7.84;1.262;17.86;-43.574;207.392;-31.792;76.341;42.12;-6.628
1160;-31.43;-32.456;23.165;-156.28;-9.568;-200.84;2.672;5.138;21.087;-30.979;189.166;-20.186;105.494;65.175;23.387
1170;-16.42;-9.803;38.522;-140.539;10.118;-192.4;13.378;6.849;23.585;-21.406;170.906;-8.739;124.004;81.036;50.953
1180;-7.074;6.707;49.09;-132.052;24.081;-187.996;19.477;8.553;26.715;-11.844;152.791;-3.718;136.807;99.187;71.972
1190;-3.104;18.893;56.784;-124.72;34.724;-183.689;25.571;10.653;29.756;-1.967;134.644;1.307;147.082;115.673;88.511
1200;-2.808;27.154;62.324;-118.501;41.312;-178.993;30.522;12.75;34.07;8.251;115.466;3.197;153.668;128.644;103.979
1210;-3.121;33.701;66.88;-113.57;44.374;-174.257;35.465;13.221;35.83;16.979;96.106;5.087;156.751;141.679;116.203
1220;-3.764;40.16;73.488;-109.083;45.739;-170.608;38.962;13.692;36.828;25.469;78.6;6.549;156.768;154.194;124.791
1230;-5.096;44.016;80.642;-103.292;48.306;-166.783;42.451;14.162;37.072;32.837;61.092;8.007;156.739;163.943;132.43
1240;-8.558;47.44;88.682;-96.859;52.379;-162.358;45.103;14.632;36.712;40.701;43.556;9.299;156.488;173.651;139.888
1250;-10.082;49.705;95.968;-89.352;57.605;-157.513;47.75;15.387;35.905;48.559;30.061;10.588;156.304;182.744;146.313
1260;-8.331;53.242;101.588;-80.892;63.751;-151.882;50.073;16.139;35.107;54.569;16.539;11.692;156.945;188.639;150.993
1270;-5.362;56.752;106.913;-74.653;69.369;-146.16;52.39;16.831;34.984;61.111;7.551;12.795;157.692;189.938;155.778
1280;0.871;60.275;112.415;-67.94;74.289;-141.147;54.474;17.525;35.084;66.852;-1.755;13.786;157.887;190.387;163.129
1290;10.64;65.33;120.67;-61.21;79.76;-135.99;56.55;17.69;35.34;73.56;-7.64;14.78;157.73;193.27;171.45
1300;21.608;71.55;131.359;-54.082;86.059;-130.559;57.131;18.057;34.954;80.781;-13.663;15.289;158.289;197.101;179.45
1310;34.107;76.176;142.093;-47.855;93.391;-124.623;57.707;17.623;33.565;85.881;-19.702;15.806;159.014;199.454;186.098
1320;45.983;80.694;151.226;-41.849;100.949;-118.311;55.784;18.83;31.778;90.972;-23.469;16.451;159.119;201.77;191.097
1330;58.823;84.855;161.196;-32.943;108.178;-112.34;53.861;19.786;31.5;93.503;-27.253;17.104;158.353;202.554;196.028
1340;70.112;90.518;171.015;-23.745;112.486;-105.924;50.77;19.943;30.103;96.086;-30.6;17.741;156.208;203.133;200.143
1350;79.106;95.993;179.282;-13.296;113.212;-99.562;47.674;20.135;28.783;97.183;-33.962;18.38;152.163;203.255;204.422
1360;87.075;103.255;185.486;-1.4;113.427;-92.299;45.723;20.288;26.462;98.544;-36.857;18.819;146.517;201.755;207.022
1370;94.38;111.246;190.191;10.713;113.239;-82.389;43.764;20.948;24.224;98.782;-40.056;19.26;140.814;198.623;206.857
1380;100.885;119.49;193.285;23.945;112.37;-72.443;42.393;20.37;21.239;99.658;-43.269;20.501;133.598;194.854;205.008
1390;104.982;126.129;197.005;37.393;113.636;-61.327;41.016;20.276;18.891;100.533;-44.135;21.742;124.305;190.113;202.369
1400;110.672;131.393;200.745;50.978;116.075;-49.384;39.06;20.424;16.514;99.059;-45.017;23.089;113.975;185.368;199.226
1410;119.911;136.707;205.417;64.211;119.107;-37.492;37.1;20.115;14.372;97.506;-46.041;24.434;104.851;178.325;193.963
1420;129.201;139.967;212.247;75.709;119.859;-25.167;35.855;20.085;13.519;94.436;-47.084;25.659;95.56;168.442;188.006
1430;139.015;145.499;216.943;85.832;122.238;-12.1;34.439;19.695;12.099;91.253;-48.344;26.715;84.617;155.529;181.968
1440;149.694;151.089;220.868;96.315;126.061;0.473;33.663;18.943;10.817;87.831;-49.233;27.214;72.619;141.577;178.117
1450;161.32;157.603;224.964;107.2;129.321;12.29;32.665;17.887;7.325;82.589;-48.86;27.517;61.344;128.156;166.695
1460;173.505;164.402;228.987;116.642;133.152;24.435;31.666;17.554;5.512;77.347;-49.548;27.822;50.043;112.053;154.873
1470;185.458;171.002;230.028;125.867;137.075;36.274;29.51;17.798;3.327;71.254;-50.251;27.123;38.93;95.246;142.934
1480;197.291;174.536;229.286;135.024;139.116;48.535;27.365;17.242;2.024;65.158;-51.302;26.424;27.794;79.777;129.126
1490;207.692;175.922;226.872;142.988;140.533;60.583;24.415;17.003;0.82;60.25;-52.368;24.892;16.983;65.61;114.653
1500;215.239;178.573;224.166;149.777;141.628;72.512;21.465;16.641;0.211;55.466;-53.449;23.363;6.358;50.259;100.235
1510;221.718;181.763;222.335;156.211;141.071;84.153;19.057;15.811;-0.601;51.322;-53.866;22.187;-3.842;34.249;86.751
1520;228.583;183.537;220.046;162.404;141.278;96.029;16.645;14.498;-1.153;45.833;-53.814;21.016;-14.743;18.299;73.637
1530;235.509;184.904;216.416;168.859;141.198;107.063;14.701;12.341;-2.027;40.345;-54.214;19.53;-25.438;2.317;58.695
1540;239.336;184.608;209.936;175.376;141.056;118.136;12.752;10.704;-3.144;34.152;-54.624;18.048;-36.512;-14.408;42.56
1550;242.405;184.546;201.186;181.462;139.109;129.904;10.683;9.012;-3.702;27.961;-55.742;16.984;-48.509;-30.821;26.78
1560;243.212;183.877;189.253;187.605;136.511;141.423;8.615;8.201;-4.509;22.43;-56.871;15.922;-60.588;-46.192;13.022
1570;242.094;181.584;176.511;194.359;133.518;152.129;7.118;7.573;-4.544;16.006;-57.651;15.443;-71.274;-61.125;-0.673
1580;238.151;179.621;161.773;199.12;129.728;162.363;5.624;7.185;-4.783;10.586;-58.519;14.971;-81.477;-74.685;-14.347
1590;233.351;175.145;145.149;203.103;127.237;173.191;5.262;6.098;-5.44;5.331;-58.477;14.818;-91.205;-87.657;-29.197
1600;225.865;170.573;127.687;206.522;125.159;183.237;4.9;4.894;-6.14;1.119;-58.164;14.673;-99.949;-100.214;-43.376
1610;217.665;162.199;111.066;207.596;125.198;191.481;4.021;3.437;-7.22;-2.444;-57.86;14.029;-107.122;-112.097;-56.43
1620;207.984;151.825;94.546;207.442;125.558;197.841;3.145;1.42;-8.337;-6.002;-57.692;13.391;-114.277;-122.082;-68.627
1630;197.877;140.377;78.34;205.808;124.458;202.411;1.553;-0.65;-8.571;-10.361;-57.533;11.533;-120.444;-132.212;-79.339
1640;188.766;128.699;61.687;202.13;122.996;206.467;-0.033;-3.119;-8.844;-16.293;-58.862;9.683;-124.4;-141.905;-89.803
1650;177.05;116.805;44.204;198.844;120.459;209.607;-1.714;-5.555;-9.039;-21.297;-60.229;7.442;-126.65;-152.285;-99.664
1660;162.39;105.328;26.556;196.172;116.61;212.458;-3.389;-7.385;-9.435;-25.591;-61.123;5.209;-129.799;-160.361;-107.309
1670;148.435;95.346;8.811;192.578;113.426;214.25;-6.278;-9.297;-10.911;-29.432;-62.471;3.742;-132.074;-166.187;-115.032
1680;133.778;83.902;-6.843;188.036;108.984;214.504;-9.156;-10.723;-12.161;-32.963;-63.826;2.282;-134.267;-171.287;-123.09
1690;118.731;72.857;-21.64;182.25;102.106;213.911;-11.983;-12.539;-13.509;-36.484;-65.641;1.589;-136.086;-175.154;-135.256
1700;103.174;61.218;-36.058;175.214;95.205;213.037;-15.154;-14.43;-14.209;-38.069;-67.461;0.76;-137.65;-178.957;-141.138
1710;88.371;49.245;-50.452;169.16;88.083;211.824;-18.23;-16.511;-15.552;-39.507;-67.451;-0.461;-139.212;-181.632;-146.298
1720;74.055;37.114;-63.527;164.066;80.477;211.405;-19.925;-19.067;-16.567;-39.622;-67.445;-1.397;-139.894;-184.401;-150.816
1730;58.914;25.362;-77.081;158.46;72.948;210.644;-21.607;-21.371;-18.432;-39.748;-66.882;-2.324;-140.678;-187.198;-154.349
1740;43.19;14.301;-91.204;153.408;64.792;209.741;-22.459;-23.706;-20.237;-40.51;-66.461;-2.594;-141.948;-190.763;-156.859
1750;24.654;-1.661;-105.812;143.84;52.777;204.855;-24.734;-26.527;-22.123;-43.331;-62.554;-4.881;-146.621;-196.321;-163.266
1760;6.564;-17.891;-119.506;132.832;40.967;199.218;-27.248;-28.908;-23.811;-46.152;-60.857;-7.121;-151.774;-200.309;-169.557
1770;-12.166;-32.868;-132.476;122.658;29.446;192.167;-29.763;-31.316;-25.655;-48.014;-59.159;-9.361;-154.457;-200.909;-175.846
1780;-31.486;-46.041;-141.248;113.204;18.789;186.993;-32.113;-33.044;-27.883;-49.876;-57.145;-10.659;-156.059;-201.636;-179.963
1790;-47.43;-58.56;-151.41;102.956;7.839;182.284;-34.463;-34.658;-29.937;-51.684;-55.131;-11.957;-156.869;-202.174;-181.779
1800;-62.971;-70.967;-159.411;93.658;-1.583;176.109;-37.154;-36.312;-32.055;-53.625;-52.326;-13.668;-156.481;-201.959;-182.894
1810;-78.419;-83.319;-165.884;84.706;-10.128;168.858;-39.846;-37.266;-33.617;-54.75;-48.981;-15.378;-155.154;-201.695;-183.397
1820;-91.988;-94.15;-171.563;74.731;-18.799;160.837;-42.167;-38.301;-35.327;-54.61;-46.56;-18.392;-153.062;-201.646;-182.363
1830;-104.364;-103.568;-177.172;65.905;-25.723;152.586;-44.488;-39.314;-37.876;-54.276;-45.076;-21.406;-150.679;-200.93;-181.605
1840;-114.528;-111.938;-180.103;56.31;-32.766;142.156;-46.921;-39.768;-39.921;-55.257;-43.592;-24.397;-147.407;-199.914;-180.323
1850;-122.063;-120.156;-182.251;45.909;-38.746;130.196;-49.354;-41.103;-42.796;-56.237;-42.941;-27.389;-144.212;-199.764;-180.425
1860;-130.448;-125.906;-183.892;35.445;-44.99;118.161;-52.541;-42.079;-44.985;-57.957;-42.29;-29.352;-141.595;-199.498;-180.161
1870;-137.862;-130.513;-184.432;24.763;-51.388;106.159;-55.727;-42.454;-47.291;-59.276;-41.988;-31.314;-138.611;-198.112;-178.291
1880;-145.041;-134.48;-186.112;14.99;-57.058;95.017;-58.811;-42.909;-49.286;-60.337;-40.953;-32.178;-135.232;-195.145;-176.523
1890;-151.128;-136.742;-188.081;6.388;-64.023;84.021;-61.895;-43.786;-51.068;-61.561;-40.352;-33.041;-132.629;-192.619;-175.646
1900;-155.531;-138.552;-189.541;-3.265;-70.248;72.846;-63.41;-44.978;-52.454;-62.876;-39.404;-33.239;-131.021;-188.043;-175.103
1910;-158.339;-140.396;-190.894;-12.317;-74.665;61.819;-64.924;-46.662;-53.327;-65.462;-38.457;-33.436;-129.018;-184.112;-174.582
1920;-160.251;-142.742;-192.037;-20.727;-78.223;51.338;-65.931;-48.549;-53.88;-68.048;-37.928;-34.422;-126.746;-180.619;-173.888
1930;-160.659;-145.479;-192.418;-28.51;-81.99;41.877;-66.938;-50.582;-55.262;-69.854;-37.4;-35.408;-123.884;-176.669;-172.833
1940;-159.857;-146.593;-192.166;-35.185;-85.56;32.752;-69.403;-51.997;-56.811;-72.079;-36.84;-38.309;-121.294;-173.17;-171.437
1950;-158.92;-146.903;-191.403;-41.738;-88.244;23.319;-71.868;-53.094;-58.444;-74.228;-36.363;-41.21;-118.327;-167.943;-170.303
1960;-158.095;-148.021;-190.65;-47.39;-91.268;13.873;-75.226;-54.143;-59.305;-75.975;-36.928;-43.836;-114.983;-162.559;-168.88
1970;-156.888;-149.651;-190.033;-53.479;-93.607;4.348;-78.792;-54.843;-60.243;-77.93;-38.001;-46.579;-111.417;-157.04;-166.543
1980;-155.906;-150.375;-188.556;-59.912;-95.297;-5.252;-82.247;-55.768;-60.731;-79.661;-39.074;-49.877;-107.817;-151.931;-163.674
1990;-154.578;-149.811;-186.273;-65.819;-96.781;-15.481;-85.491;-56.923;-61.53;-81.392;-41.564;-52.68;-102.697;-147.699;-160.375
2000;-153.826;-148.563;-185.346;-72.023;-98.557;-24.651;-88.523;-58.239;-62.403;-82.321;-44.054;-55.541;-97.64;-143.305;-157.275
2010;-154.194;-147.847;-185.07;-77.546;-100.539;-32.305;-91.681;-60.036;-63.597;-83.16;-46.207;-58.503;-93.174;-138.21;-153.963
2020;-154.68;-147.364;-185.094;-82.148;-103.004;-39.463;-94.806;-61.881;-65.51;-83.572;-48.36;-61.494;-89.353;-134.821;-151.005
2030;-154.841;-147.404;-187.137;-86.498;-106.055;-47.621;-97.08;-64.259;-66.937;-84.074;-50.279;-63.93;-85.509;-131.146;-148.721
2040;-156.979;-147.444;-187.734;-89.348;-108.72;-56.275;-99.354;-66.855;-67.563;-84.655;-52.179;-66.366;-80.412;-127.099;-146.117
2050;-160.342;-148.171;-189.385;-93.048;-112.157;-64.32;-101.217;-67.332;-67.095;-85.95;-54.301;-68.295;-76.119;-124.041;-143.018
2060;-163.778;-147.983;-190.2;-97.996;-116.228;-71.977;-103.079;-68.454;-67.757;-87.246;-56.015;-70.225;-72.557;-121.117;-140.041
2070;-167.338;-147.116;-190.422;-103.316;-119.924;-78.506;-101.048;-69.829;-68.021;-90.006;-57.73;-71.537;-70.034;-119.549;-136.181
2080;-170.279;-145.869;-190.217;-108.201;-122.545;-84.276;-99.018;-71.066;-67.956;-92.421;-58.407;-72.848;-67.829;-118.97;-130.343
2090;-173.026;-144.276;-191.123;-111.939;-125.847;-88.445;-100.244;-73.32;-68.212;-94.019;-59.084;-72.972;-67.186;-118.473;-124.485
2100;-175.566;-142.793;-192.476;-115.703;-129.617;-91.717;-101.47;-74.913;-68.421;-94.754;-59.801;-73.097;-67.339;-116.934;-117.999
2110;-177.297;-142.054;-193.738;-119.081;-132.977;-93.908;-103.611;-76.041;-68.994;-95.76;-60.146;-73.105;-67.073;-114.804;-112.378
2120;-178.068;-140.294;-195.419;-122.058;-135.983;-95.95;-105.752;-78.087;-69.592;-96.633;-60.574;-73.113;-66.494;-112.528;-107.375
2130;-178.775;-137.174;-196.303;-125.919;-138.561;-98.054;-106.781;-79.257;-70.494;-97.506;-62.065;-73.937;-66.019;-110.658;-101.662
2140;-180.357;-133.868;-195.766;-129.739;-139.782;-100.723;-107.81;-80.556;-71.058;-96.306;-63.556;-74.76;-65.423;-107.89;-94.674
2150;-182.756;-130.596;-193.563;-132.622;-140.96;-103.099;-107.138;-81.334;-71.977;-95.106;-65.568;-76.559;-64.519;-107.288;-86.983
2160;-185.345;-127.159;-190.392;-136.401;-142.741;-105.703;-106.466;-81.943;-72.655;-92.928;-67.581;-78.357;-63.004;-105.901;-78.724
2170;-188.414;-123.692;-187.401;-139.534;-144.881;-109.292;-106.872;-82.997;-74.548;-90.45;-69.352;-78.906;-61.423;-103.469;-70.196
2180;-191.434;-119.981;-184.243;-142.084;-148.109;-114.161;-107.277;-84.132;-76.446;-89.103;-70.571;-79.455;-59.301;-101.894;-61.708
2190;-195.28;-116.763;-181.433;-144.629;-150.804;-119.092;-107.84;-84.279;-78.319;-87.103;-72.229;-78.643;-57.338;-100.604;-52.992
2200;-197.589;-113.683;-177.872;-146.33;-153.244;-123.019;-108.403;-84.764;-80.025;-85.283;-73.728;-77.83;-55.713;-100.181;-44.201
2210;-198.745;-108.39;-175.592;-147.982;-155.783;-127.039;-106.774;-85.989;-80.385;-83.539;-75.228;-76.938;-54.572;-97.44;-36.589
2220;-200.261;-101.251;-173.888;-148.901;-158.884;-131.461;-105.145;-87.357;-80.026;-81.796;-76.29;-76.046;-53.912;-95.092;-30.426
2230;-200.858;-94.222;-171.874;-149.549;-162.386;-135.577;-102.415;-87.971;-79.579;-80.146;-77.352;-73.55;-53.916;-90.995;-25.568
2240;-200.768;-87.502;-170.503;-149.996;-166.219;-138.781;-99.665;-88.156;-79.833;-76.903;-77.466;-70.848;-54.872;-85.655;-20.345
2250;-199.581;-80.514;-167.863;-150.183;-169.284;-141.873;-97.152;-86.822;-79.861;-74.299;-77.283;-68.39;-55.081;-79.734;-14.217
2260;-197.015;-75.447;-164.961;-151.299;-171.957;-144.96;-94.68;-84.952;-79.441;-70.443;-76.662;-65.919;-55.026;-76.503;-8.412
2270;-192.458;-69.188;-160.299;-153.259;-174.669;-147.572;-90.17;-83.021;-78.145;-66.662;-75.644;-63.495;-55.192;-73.549;-1.532
2280;-188.6;-64.742;-156.65;-154.796;-176.858;-148.84;-86.488;-80.612;-74.768;-64.545;-74.626;-61.88;-55;-68.92;7.321
2290;-185.074;-60.421;-153.698;-156.481;-178.574;-149.632;-82.697;-78.608;-71.447;-62.428;-72.37;-60.361;-55.835;-63.659;17.818
2300;-181.466;-54.459;-149.324;-155.6;-179.021;-150.509;-76.632;-78.35;-69.196;-62.041;-70.113;-57.594;-55.222;-58.247;27.356
2310;-177.324;-48.621;-144.353;-153.003;-179.85;-150.299;-70.567;-76.985;-66.527;-61.614;-68.728;-54.828;-53.808;-51.832;37.015
2320;-172.959;-42.702;-139.113;-150.423;-180.902;-149.553;-68.748;-75.097;-64.153;-60.825;-67.199;-51.262;-51.095;-44.261;44.16
2330;-167.654;-37.17;-131.382;-148.234;-180.541;-149.008;-66.928;-72.006;-60.141;-59.68;-65.646;-47.697;-46.23;-36.026;49.091
2340;-163.505;-32.657;-120.36;-146.258;-178.983;-148.408;-62.641;-67.588;-54.623;-58.665;-61.946;-45.579;-39.679;-26.345;53.877
2350;-158.273;-27.826;-109.068;-144.684;-176.429;-148.825;-58.354;-62.353;-48.574;-57.69;-58.247;-43.462;-33.319;-16.203;58.701
2360;-150.975;-22.968;-99.255;-142.666;-172.338;-149.992;-51.428;-57.314;-41.899;-56.714;-52.479;-41.749;-27.087;-7.617;63.291
2370;-143.161;-17.72;-88.859;-139.181;-168.312;-151.375;-44.501;-50.263;-35.257;-54.877;-46.71;-40.036;-21.313;0.983;67.868
2380;-133.857;-13.059;-78.636;-133.817;-164.252;-152.932;-35.799;-44.13;-27.979;-52.957;-41.378;-37.523;-15.006;9.866;71.101
2390;-123.454;-9.026;-68.007;-129.212;-159.701;-154.207;-27.097;-37.17;-21.04;-51.743;-36.046;-35.01;-7.414;19.592;73.592
2400;-110.935;-4.948;-58.206;-125.12;-156.957;-154.766;-19.695;-30.683;-12.101;-49.516;-30.538;-30.735;1.258;30.445;75.291
2410;-97.668;-1.501;-49.85;-123.15;-154.457;-155.255;-12.294;-24.359;-0.01;-47.905;-24.779;-26.461;10.742;42.138;75.93
2420;-85.189;2.556;-42.128;-120.395;-152.528;-154.292;-3.552;-17.501;13.01;-42.779;-18.917;-21.566;20.982;55.058;75.578
2430;-74.651;6.557;-34.661;-118.341;-149.979;-152.586;5.19;-9.79;28.116;-37.654;-12.743;-16.67;31.196;69.429;75.406
2440;-65.338;9.498;-27.338;-116.417;-146.916;-150.8;17.731;-2.897;43.073;-31.135;-6.57;-11.563;41.143;85.27;75.337
2450;-56.912;12.034;-20.847;-115.257;-144.532;-148.361;30.272;5.494;58.506;-24.486;-0.788;-6.455;50.771;101.345;76.354
2460;-48.401;12.35;-13.07;-114.553;-142.115;-144.366;43.23;14.382;71.554;-18.163;4.994;-1.655;61.676;115.723;79.077
2470;-39.899;9.977;-4.596;-114.415;-138.461;-139.421;56.189;25.863;84.403;-10.734;10.647;3.145;72.182;130.949;83.331
2480;-31.717;7.892;3.662;-114.119;-134.764;-134.905;66.574;36.639;96.634;-3.566;18.821;8.719;83.215;145.255;89.801
2490;-23.652;4.461;14.218;-113.621;-129.462;-130.534;76.959;50.039;109.905;3.897;26.967;14.292;93.641;159.779;96.89
2500;-15.659;0.894;23.815;-110.659;-124.883;-125.255;86.492;62.127;122.852;11.359;33.956;21.819;103.148;174.648;103.484
2510;-9.149;1.127;35.15;-105.863;-121.319;-119.526;96.054;75.229;134.908;16.868;40.945;29.36;113.654;191.567;110.092
2520;-5.959;0.339;44.353;-100.156;-116.665;-113.445;105.862;88.277;146.963;22.377;48.759;39.263;124.418;208.406;116.123
2530;-1.861;0.927;55.908;-93.632;-110.719;-108;115.636;102.592;157.33;31.109;56.572;49.126;134.778;222.389;121.044
2540;3.204;1.632;68.674;-87.383;-104.899;-103.081;126.967;117.303;166.959;40.895;63.626;62.582;146.469;235.141;125.854
2550;10.619;1.643;79.022;-81.921;-99.512;-98.807;136.236;132.303;176.134;52.521;70.988;75.246;157.175;246.763;130.348
2560;19.378;2.337;89.16;-76.652;-92.175;-96.349;145.519;146.417;184.926;65.771;78.474;87.84;166.841;257.236;135.101
2570;29.481;3.19;99.16;-70.528;-83.819;-95.143;156.832;159.828;191.967;79.09;86.004;100.779;174.731;268.061;140.63
2580;40.203;4.589;107.477;-64.501;-75.657;-93.01;168.145;172.194;196.714;93.756;93.534;113.719;181.596;278.766;147.389
2590;53.327;6.985;114.146;-58.843;-67.491;-90.359;181.468;183.732;200.617;108.422;101.276;125.43;188.183;287.161;154.015
2600;64.759;9.339;121.708;-52.308;-60.763;-86.655;194.79;194.571;203.497;124.317;109.018;137.142;196.335;293.91;160.839
2610;73.583;12.445;132.618;-44.927;-55.092;-82.219;206.959;204.524;205.945;141.745;114.354;148.052;204.502;302.001;167.328
2620;81.963;13.768;143.738;-38.4;-48.232;-76.981;219.127;212.437;207.11;158.211;119.719;158.963;212.141;309.593;173.313
