timepoints (min);46: wc-2-.1;47: wc-2-.2;48: wc-2-.3
900;-75.922;-93.862;-126.668
910;-70.913;-87.407;-122.019
920;-65.8;-81.853;-118.08
930;-61.382;-77.03;-112.938
940;-57.651;-73.43;-108.471
950;-54.214;-70.303;-104.564
960;-51.535;-67.572;-100.294
970;-49.25;-64.825;-96.512
980;-46.975;-62.642;-93.148
990;-45.204;-60.725;-90.421
1000;-43.586;-59.037;-87.986
1010;-42.393;-57.125;-85.804
1020;-41.346;-55.416;-84.019
1030;-33.738;-47.513;-75.261
1040;-26.109;-39.526;-66.486
1050;-18.458;-31.522;-57.219
1060;-14.464;-23.502;-52.014
1070;-10.496;-19.82;-46.793
1080;-8.646;-16.122;-40.968
1090;-6.784;-12.409;-38.004
1100;-5.989;-11.024;-35.022
1110;-5.223;-9.621;-31.75
1120;-5.017;-8.2;-29.299
1130;-4.839;-7.936;-26.829
1140;-5.141;-7.653;-24.566
1150;-5.391;-7.353;-22.521
1160;-5.798;-6.995;-20.456
1170;-6.79;-6.58;-18.52
1180;-7.806;-6.15;-17.685
1190;-8.805;-5.624;-16.831
1200;-9.948;-5.34;-15.962
1210;-10.641;-5.039;-15.797
1220;-11.242;-5.002;-15.617
1230;-11.814;-5.38;-15.251
1240;-12.258;-5.739;-14.712
1250;-12.567;-6.081;-14.162
1260;-12.993;-6.91;-12.898
1270;-13.333;-7.724;-11.429
1280;-13.67;-8.522;-9.955
1290;-14.209;-8.953;-7.861
1300;-14.745;-9.373;-6.286
1310;-15.239;-9.781;-4.709
1320;-15.723;-9.856;-2.494
1330;-15.765;-9.922;-0.999
1340;-15.726;-9.979;0.496
1350;-15.165;-10.068;2.413
1360;-14.536;-10.351;3.927
1370;-13.467;-10.622;5.44
1380;-12.43;-11.122;7.094
1390;-11.59;-11.697;8.787
1400;-10.918;-12.257;10.478
1410;-10.241;-13.084;12.224
1420;-9.68;-13.936;14.128
1430;-9.098;-14.772;16.031
1440;-7.791;-15.591;18.094
1450;-6.32;-16.628;20.275
1460;-4.605;-17.65;22.456
1470;-2.857;-18.657;24.491
1480;-2.067;-19.842;26.485
1490;-1.204;-21.014;28.485
1500;-0.422;-22.173;30.204
1510;0.629;-22.792;31.522
1520;2.237;-23.396;32.816
1530;3.858;-23.984;34.03
1540;5.636;-23.157;34.843
1550;6.891;-22.997;35.662
1560;8.068;-22.812;36.841
1570;9.563;-22.844;37.459
1580;10.573;-22.294;38.068
1590;12.463;-21.718;38.997
1600;13.81;-21.196;39.606
1610;15.996;-20.462;40.214
1620;17.686;-19.709;40.741
1630;18.127;-20.797;39.185
1640;18.699;-21.937;37.594
1650;19.272;-23.076;36.164
1660;19.793;-24.215;35.357
1670;20.393;-24.505;34.461
1680;21.132;-24.794;34.044
1690;21.228;-25.084;33.964
1700;21.509;-24.259;33.932
1710;21.681;-23.434;34.381
1720;22.143;-22.61;35.134
1730;23.628;-20.834;35.99
1740;25.541;-19.059;37.567
1750;27.451;-17.284;39.465
1760;30.041;-15.988;41.363
1770;32.113;-14.948;43.221
1780;34.185;-13.908;45.352
1790;36.563;-14.441;47.531
1800;39.426;-14.284;49.23
1810;41.601;-14.127;50.694
1820;43.374;-13.921;52.233
1830;44.261;-13.634;53.212
1840;44.212;-13.348;53.844
1850;43.451;-13.061;54.4
1860;41.884;-12.661;53.636
1870;39.957;-12.261;52.917
1880;37.717;-11.861;52.074
1890;35.677;-11.526;50.272
1900;33.575;-11.19;48.399
1910;32.193;-10.855;46.546
1920;30.964;-11.076;44.334
1930;30.01;-11.297;41.766
1940;28.695;-11.517;39.287
1950;27.401;-12.397;36.328
1960;25.981;-12.324;32.959
1970;24.374;-12.251;29.61
1980;23.12;-12.497;26.341
1990;21.52;-11.266;22.345
2000;20.567;-10.036;18.335
2010;18.954;-8.757;14.445
2020;17.342;-5.981;10.568
2030;15.843;-3.204;6.65
2040;14.044;-0.428;2.731
2050;12.218;1.59;-0.728
2060;11.018;3.608;-4.194
2070;9.272;5.626;-7.741
2080;8.363;7.026;-10.72
2090;6.474;8.426;-13.698
2100;5.292;9.826;-16.676
2110;3.29;12.486;-18.265
2120;1.64;15.145;-19.734
2130;-0.09;17.804;-21.203
2140;-2.012;21.171;-21.643
2150;-3.935;28.263;-22.164
2160;-5.651;35.356;-22.686
2170;-7.437;43.05;-22.75
2180;-8.908;52.152;-22.775
2190;-9.977;61.254;-22.8
2200;-10.836;70.37;-22.29
2210;-11.61;76.546;-21.717
2220;-11.988;82.723;-21.145
2230;-12.719;88.899;-20.625
2240;-13.084;91.128;-19.891
2250;-14.11;93.357;-19.157
2260;-15.137;95.586;-18.53
2270;-16.012;96.008;-17.396
2280;-17.008;96.43;-16.262
2290;-18.32;96.852;-15.101
2300;-19.68;99.491;-14.226
2310;-21.759;102.13;-13.352
2320;-23.243;104.768;-12.425
2330;-25.252;108.044;-12.132
2340;-26.186;111.341;-11.8
2350;-26.654;114.637;-11.516
2360;-26.259;116.983;-11.266
2370;-25.408;119.979;-11.137
2380;-24.429;122.975;-11.021
2390;-23.45;126.24;-11.185
2400;-22.36;124.95;-11.309
2410;-21.56;123.661;-11.371
2420;-20.225;122.371;-11.894
2430;-19.192;118.356;-12.457
2440;-17.687;114.341;-12.964
2450;-16.357;110.326;-13.08
2460;-15.083;107.578;-13.196
2470;-14.266;104.83;-13.326
2480;-13.434;102.083;-12.687
2490;-13.065;100.473;-12.248
2500;-12.335;98.863;-11.782
2510;-11.571;97.254;-11.45
2520;-11.047;95.785;-11.637
2530;-10.764;94.33;-11.742
2540;-9.91;92.874;-12.422
2550;-9.177;89.457;-12.822
2560;-7.717;86.127;-13.139
2570;-6.303;82.797;-13.604
2580;-4.585;78.85;-13.469
2590;-2.884;73.33;-13.21
2600;-1.719;67.81;-12.877
2610;-0.556;62.29;-12.545
2620;0.254;54.236;-12.219
2630;1.063;46.182;-11.647
2640;1.801;38.128;-10.794
2650;2.339;30.578;-10.025
2660;2.847;23.028;-9.201
2670;2.785;15.477;-7.938
2680;3.044;8.825;-6.771
2690;2.942;2.172;-5.851
2700;2.796;-4.48;-5.371
2710;2.932;-10.494;-5.119
2720;3.047;-16.501;-4.949
2730;3.277;-22.508;-5.499
2740;3.342;-27.112;-6.215
2750;3.088;-31.474;-6.657
2760;2.834;-35.837;-6.978
2770;2.088;-39.617;-7.361
2780;1.577;-43.69;-7.717
2790;0.763;-47.763;-7.553
2800;0.076;-51.836;-7.472
2810;-0.432;-55.972;-7.785
2820;-0.866;-60.109;-7.978
2830;-1.279;-64.245;-8.157
2840;-1.625;-66.186;-8.417
2850;-1.741;-68.127;-8.756
2860;-1.812;-70.068;-8.999
2870;-1.484;-69.662;-9.161
2880;-1.239;-69.257;-9.564
2890;-0.873;-68.851;-9.974
2900;-0.228;-67.927;-10.343
2910;0.372;-67.01;-10.753
2920;0.676;-66.092;-11.204
2930;0.534;-64.542;-11.455
2940;-0.221;-63.063;-11.473
2950;-1.097;-61.585;-11.539
2960;-2.47;-59.847;-11.406
2970;-3.967;-58.608;-11.251
2980;-5.757;-57.37;-11.097
2990;-7.292;-56.131;-10.942
3000;-8.828;-54.265;-11.034
3010;-9.808;-52.399;-11.065
3020;-10.186;-50.532;-10.975
3030;-10.163;-47.552;-10.879
3040;-9.961;-44.571;-10.81
3050;-9.419;-41.59;-10.461
3060;-9.167;-39.127;-9.752
3070;-8.059;-36.663;-9.015
3080;-6.932;-34.2;-8.559
3090;-5.377;-32.526;-7.988
3100;-3.982;-30.865;-7.334
3110;-3.508;-29.204;-6.6
3120;-3.371;-27.881;-5.857
3130;-3.234;-26.728;-5.134
3140;-3.934;-25.575;-4.091
3150;-4.879;-24.263;-3.137
3160;-5.754;-23.308;-2.223
3170;-6.437;-22.352;-1.15
3180;-6.862;-21.279;-0.381
3190;-6.847;-20.246;0.444
3200;-6.429;-19.212;1.309
3210;-5.596;-18.179;1.974
3220;-4.741;-16.637;2.604
3230;-3.585;-15.095;3.194
3240;-2.389;-13.553;3.737
3250;-1.172;-12.658;4.251
3260;-0.476;-11.763;4.686
3270;0.823;-10.868;4.924
3280;1.763;-10.974;5.177
3290;2.997;-11.066;5.469
3300;3.905;-11.159;5.557
3310;4.298;-11.062;5.563
3320;3.85;-10.916;6.048
3330;2.954;-10.77;6.938
3340;1.658;-10.886;7.683
3350;0.183;-11.379;8.228
3360;-0.343;-11.873;8.672
3370;-0.87;-12.484;9.088
3380;-1.632;-12.949;9.345
3390;-1.578;-13.414;9.192
3400;-1.585;-13.879;9.225
3410;-1.709;-13.601;9.458
3420;-1.807;-13.324;9.51
3430;-2.218;-13.047;9.48
3440;-2.563;-13.375;9.45
3450;-3.269;-13.703;9.393
3460;-3.556;-14.032;8.917
3470;-3.858;-14.698;8.441
3480;-3.56;-15.481;8.047
3490;-3.268;-16.265;7.768
3500;-2.975;-17.07;7.49
3510;-2.869;-17.663;7.298
3520;-3.2;-18.257;7.301
3530;-3.648;-18.8;7.303
3540;-4.343;-19.603;7.225
3550;-4.785;-20.406;7.426
3560;-4.801;-21.222;7.628
3570;-4.331;-22.112;7.349
3580;-3.462;-23.001;6.988
3590;-2.948;-23.891;6.626
3600;-2.262;-24.352;6.506
3610;-1.577;-24.812;5.895
3620;-1.454;-25.273;5.284
3630;-1.131;-25.917;4.833
3640;-0.49;-26.561;4.473
3650;0.212;-27.206;4.113
3660;1.469;-28.541;3.491
3670;2.644;-29.876;2.681
3680;3.932;-31.211;1.872
3690;5.099;-32.091;1.048
3700;6.527;-32.967;-0.228
3710;7.542;-33.843;-1.063
3720;8.506;-34.604;-1.886
3730;8.843;-35.087;-3.05
3740;9.179;-35.57;-4.254
3750;9.364;-36.018;-5.451
3760;9.763;-36.004;-7.063
3770;10.167;-35.99;-8.836
3780;10.771;-35.977;-10.574
3790;11.299;-35.545;-12.528
3800;11.539;-35.113;-14.763
3810;11.397;-34.681;-16.963
3820;10.83;-33.949;-18.508
3830;10.095;-33.217;-20.052
3840;9.728;-32.484;-21.597
3850;9.441;-30.368;-23.051
3860;9.203;-28.252;-24.145
3870;9.444;-26.137;-25.218
3880;9.748;-23.917;-26.468
3890;9.67;-22.357;-27.877
3900;9.688;-20.797;-29.239
3910;9.276;-19.132;-30.065
3920;9.241;-17.877;-30.731
3930;9.018;-16.622;-31.445
3940;9.097;-15.367;-31.444
3950;8.914;-13.688;-30.963
3960;8.414;-12.01;-30.468
3970;8.061;-10.331;-30.371
3980;7.708;-9.086;-30.395
3990;6.917;-7.84;-30.363
4000;6.327;-6.594;-32.039
4010;5.291;-6.012;-33.954
4020;4.181;-5.43;-35.843
4030;3.086;-4.848;-37.506
4040;1.956;-3.47;-38.85
4050;1.121;-2.092;-40.186
4060;0.607;-0.714;-41.822
4070;0.406;0.49;-43.658
4080;0.317;2.684;-45.501
4090;-0.084;4.879;-47.873
4100;-0.572;5.466;-50.406
4110;-1.061;5.102;-52.952
4120;-1.939;4.738;-55.643
4130;-2.818;4.346;-58.254
4140;-3.615;3.728;-60.858
4150;-4.459;3.11;-63.372
4160;-5.066;2.492;-66.367
4170;-5.913;2.079;-68.941
4180;-6.596;1.665;-71.034
4190;-7.512;1.251;-73.968
4200;-8.069;-0.466;-76.302
4210;-8.459;-2.183;-77.876
4220;-8.89;-3.901;-79.61
4230;-9.375;-5.695;-80.695
4240;-9.541;-7.49;-81.381
4250;-9.833;-9.284;-80.986
4260;-9.646;-10.05;-80.557
4270;-9.211;-10.815;-79.968
4280;-8.681;-11.581;-79.859
4290;-7.898;-13.349;-79.75
4300;-7.354;-14.677;-79.215
4310;-6.895;-16.005;-78.636
4320;-6.659;-17.348;-78.057
4330;-6.16;-17.97;-74.797
4340;-5.341;-18.592;-71.091
4350;-4.521;-19.09;-67.385
4360;-3.817;-18.941;-59.879
4370;-2.652;-18.792;-52.007
4380;-1.523;-18.643;-44.135
4390;-0.433;-19.342;-36.863
4400;0.978;-19.462;-29.543
4410;1.993;-19.582;-22.223
4420;2.771;-20.323;-17.543
4430;3.309;-21.063;-13.509
4440;3.512;-21.804;-9.474
4450;3.314;-21.564;-5.04
4460;3.288;-21.097;-1.428
4470;3.219;-20.629;2.185
4480;3.15;-20.481;6.357
4490;3.263;-16.974;10.157
4500;3.448;-13.466;13.819
4510;3.203;-10.626;17.161
4520;2.717;-8.599;20.316
4530;2.652;-6.571;23.47
4540;2.348;-4.543;27.345
4550;2.149;-1.222;31.297
4560;2.11;2.099;35.283
4570;1.891;5.179;42.509
4580;1.512;6.829;47.076
4590;1.052;8.479;51.643
4600;0.559;10.128;59.85
4610;0.145;11.374;64.298
4620;-0.062;12.619;68.746
4630;-0.269;13.527;74.661
4640;-0.407;13.594;81.12
4650;-0.825;13.662;87.579
4660;-1.298;13.73;95.079
4670;-1.451;14.465;105.252
4680;-1.716;13.4;115.426
4690;-1.701;11.625;125.865
4700;-1.632;9.366;135.931
4710;-1.803;6.826;145.997
4720;-1.974;4.287;155.743
4730;-2.165;1.748;164.916
4740;-2.477;-3.382;174.088
4750;-2.742;-8.512;182.741
4760;-2.487;-13.641;191.472
4770;-2.142;-16.661;198.243
4780;-2.197;-19.68;205.014
4790;-2.251;-22.699;211.21
4800;-2.425;-25.491;213.725
4810;-2.666;-28.283;216.241
4820;-2.734;-31.074;215.414
4830;-2.681;-31.812;210.666
4840;-2.604;-32.55;205.919
4850;-2.527;-33.288;197.345
4860;-2.588;-33.138;188.771
4870;-2.848;-32.988;180.197
4880;-3.436;-32.837;170.226
4890;-4.223;-28.437;159.8
4900;-4.97;-24.037;145.974
4910;-5.792;-20.072;131.087
4920;-7.119;-16.106;116.2
4930;-8.486;-10.223;101.313
4940;-9.908;-4.341;85.83
4950;-11.57;0.822;69.72
4960;-13.232;6.092;53.61
4970;-14.857;10.852;36.985
4980;-16.481;15.612;20.36
4990;-18.099;19.272;3.735
5000;-20.392;19.571;-12.37
5010;-22.189;19.87;-28.474
5020;-23.986;18.603;-42.992
5030;-25.742;17.28;-56.466
5040;-28.286;15.957;-69.941
5050;-30.76;13.08;-79.735
5060;-32.794;8.883;-89.399
5070;-34.836;4.686;-99.062
5080;-37.714;-1.225;-105.095
5090;-40.593;-7.135;-111.059
5100;-43.212;-13.046;-116.223
5110;-45.832;-18.846;-121.388
5120;-48.41;-23.646;-126.524
5130;-51.302;-28.446;-131.661
5140;-54.153;-35.839;-136.797
5150;-56.684;-43.156;-139.023
5160;-59.243;-50.473;-141.45
5170;-61.772;-56.39;-143.876
5180;-64.274;-62.066;-145.84
5190;-66.777;-67.742;-147.804
5200;-69.279;-72.684;-149.768
5210;-71.794;-77.688;-151.077
5220;-74.52;-82.692;-152.083
5230;-77.246;-85.737;-153.008
5240;-79.211;-88.939;-154.037
5250;-81.128;-88.486;-155.066
5260;-83.417;-88.032;-156.095
5270;-85.76;-87.688;-157.579
5280;-87.343;-87.345;-160.389
5290;-88.975;-82.881;-161.719
5300;-90.607;-78.287;-162.979
5310;-92.521;-72.193;-164.24
5320;-94.436;-66.099;-165.501
5330;-96.23;-60.006;-166.665
5340;-98.004;-51.612;-167.829
5350;-99.989;-43.219;-169.979
5360;-102.063;-34.826;-170.305
5370;-104.418;-27.543;-170.63
5380;-106.703;-20.261;-170.956
5390;-108.989;-12.978;-171.157
5400;-111.546;-7.079;-171.359
5410;-114.103;-1.179;-171.539
5420;-116.768;3.092;-170.401
5430;-119.433;7.343;-169.263
5440;-121.698;11.594;-168.125
5450;-123.963;15.846;-166.36
5460;-125.908;19.352;-164.594
5470;-127.818;22.858;-162.829
5480;-129.728;24.087;-160.923
5490;-131.495;25.012;-156.377
5500;-133.262;25.938;-151.83
5510;-134.589;29.383;-147.105
5520;-135.916;32.829;-142.379
5530;-137.044;35.964;-137.654
5540;-138.172;34.572;-134.353
5550;-138.134;33.181;-127.412
5560;-138.095;31.741;-120.472
5570;-138.057;33.261;-113.586
5580;-137.566;34.781;-106.701
5590;-137.074;34.574;-99.815
5600;-132.897;34.367;-93.019
5610;-128.719;34.16;-87.959
5620;-124.019;34.222;-81.076
5630;-119.32;34.604;-74.193
5640;-109.828;34.986;-67.31
5650;-100.335;37.897;-61.062
5660;-90.85;40.807;-54.814
5670;-81.05;43.717;-49.015
5680;-67.069;46.079;-42.212
5690;-53.088;48.44;-35.41
5700;-39.108;50.801;-28.607
5710;-25.295;54.804;-21.804
5720;-11.483;58.807;-15.001
5730;5.954;62.81;-8.199
5740;23.392;68.346;-3.719
5750;40.829;73.883;2.855
5760;57.881;77.458;9.429
5770;77.917;81.033;16.003
5780;97.953;84.608;22.577
5790;117.989;88.183;29.15
5800;136.892;91.555;32.615
5810;155.796;94.926;36.08
5820;175.24;95.502;42.287
5830;194.684;96.079;48.494
5840;214.128;96.655;54.701
5850;229.844;94.932;60.908
5860;245.236;93.21;67.114
5870;260.628;91.487;71.941
5880;276.019;89.299;79.052
5890;286.542;87.112;86.164
5900;297.065;84.924;93.276
5910;307.217;81.469;100.388
5920;317.368;78.014;107.499
5930;323.312;75.404;113.49
5940;329.255;72.794;119.48
5950;334.847;70.185;126.688
5960;340.439;67.575;133.897
5970;346.03;65.138;141.105
5980;347.756;62.701;148.313
5990;349.481;59.15;155.832
6000;351.102;55.6;160.67
6010;352.723;52.05;166.514
6020;351.153;50.061;172.359
6030;349.583;48.072;178.203
6040;345.614;46.083;184.157
6050;341.644;44.388;190.112
6060;337.709;42.692;196.066
6070;333.254;40.997;199.141
6080;328.799;41.48;202.429
6090;319.435;41.963;206.09
6100;310.167;44.414;209.75
6110;301.299;46.865;213.411
6120;292.432;49.316;217.072
6130;278.175;51.767;218.612
6140;263.96;57.288;221.27
6150;249.745;62.81;223.928
6160;235.97;69.24;226.586
6170;222.194;75.67;229.244
6180;204.996;82.101;231.902
6190;187.797;89.948;234.76
6200;170.999;97.794;236.538
6210;154.2;105.538;237.8
6220;135.65;113.281;239.062
6230;117.099;121.025;240.324
6240;98.549;128.768;241.303
6250;80.159;132.822;242.283
6260;61.768;136.876;242.222
6270;41.611;139.637;240.492
6280;21.454;142.399;238.763
6290;3.697;145.16;236.723
6300;-14.061;147.921;234.683
6310;-33.312;144.539;232.643
6320;-52.563;141.157;230.603
6330;-71.814;135.77;228.363
6340;-86.025;130.382;224.117
6350;-100.96;124.994;219.872
6360;-116.139;116.801;215.626
6370;-131.319;108.608;211.381
6380;-140.978;100.222;207.135
6390;-151.189;89.476;201.655
6400;-161.36;78.73;193.723
6410;-171.531;67.983;185.79
6420;-181.702;56.788;177.858
6430;-189.132;45.592;169.925
6440;-196.563;32.655;161.276
6450;-203.079;19.719;152.626
6460;-209.594;6.782;144.817
6470;-215.041;-6.154;132.859
6480;-220.488;-18.196;120.902
6490;-224.708;-31.21;108.352
6500;-228.927;-40.823;95.801
6510;-233.146;-50.437;83.251
6520;-236.24;-60.051;72.501
6530;-238.337;-69.617;58.8
6540;-240.433;-79.182;45.099
6550;-242.53;-89.906;30.771
6560;-244.063;-94.59;16.443
6570;-245.597;-99.274;2.114
6580;-245.417;-103.959;-12.214
6590;-245.236;-108.49;-26.502
6600;-244.972;-113.021;-40.597
6610;-244.389;-114.926;-54.692
6620;-242.635;-116.83;-68.788
6630;-240.88;-118.735;-82.883
6640;-238.326;-120.64;-97.618
6650;-235.611;-123.799;-109.204
6660;-233.097;-126.633;-120.79
6670;-230.492;-128.508;-131.88
6680;-227.116;-130.382;-142.97
6690;-223.739;-132.257;-156.219
6700;-221.203;-135.868;-169.372
6710;-218.735;-139.479;-182.526
6720;-215.668;-142.421;-191.159
6730;-212.6;-146.203;-199.426
6740;-210.172;-149.985;-211.534
6750;-207.745;-153.767;-223.428
6760;-204.862;-156.968;-235.321
6770;-201.979;-159.563;-247.215
6780;-198.657;-162.357;-255.869
6790;-195.334;-165.152;-265.683
6800;-192.08;-167.946;-274.821
6810;-188.557;-170.141;-283.959
6820;-183.275;-172.335;-293.097
6830;-179.072;-174.15;-302.234
6840;-174.869;-175.926;-307.932
6850;-170.39;-177.701;-313.044
6860;-165.912;-179.476;-317.977
6870;-159.793;-181.183;-322.909
6880;-153.674;-182.891;-327.841
6890;-147.639;-184.254;-330.334
6900;-141.603;-184.377;-332.495
6910;-131.487;-184.499;-334.657
6920;-121.371;-184.622;-336.818
6930;-111.117;-183.468;-338.945
6940;-101.732;-181.892;-335.312
6950;-87.588;-178.877;-331.423
6960;-73.443;-175.862;-327.535
6970;-59.153;-172.847;-323.647
6980;-45.815;-168.712;-319.759
6990;-29.037;-164.17;-305.996
7000;-12.259;-159;-291.854
7010;4.615;-154.59;-277.712
7020;21.49;-150.181;-263.57
7030;40.432;-145.771;-249.428
7040;59.374;-137.568;-229.966
7050;78.288;-128.862;-210.11
7060;97.203;-120.756;-190.4
7070;116.036;-112.65;-170.69
7080;134.869;-104.543;-150.979
7090;153.702;-90.797;-129.469
7100;172.535;-77.637;-107.738
7110;191.375;-64.125;-86.007
7120;209.061;-50.454;-64.586
7130;226.746;-36.782;-43.166
7140;244.432;-23.11;-23.545
7150;262.117;-2.719;0.019
7160;277.611;16.839;23.583
7170;293.139;36.396;47.148
7180;308.668;54.993;70.712
7190;324.196;73.59;90.359
7200;335.044;92.188;112.103
7210;345.837;113.8;133.848
7220;356.63;135.412;155.593
7230;367.286;155.905;177.338
7240;370.101;176.397;193.083
7250;372.888;196.89;208.331
7260;375.676;215.502;223.579
7270;378.463;233.735;238.828
7280;373.225;251.968;254.076
7290;367.986;266.601;265.164
7300;362.796;281.234;275.817
7310;357.606;295.868;286.469
7320;347.015;306.283;296.342
7330;336.425;316.843;306.215
7340;325.821;321.763;312.648
7350;315.217;326.683;317.648
7360;301.532;331.603;322.648
7370;286.488;332.851;327.648
7380;271.492;334.134;332.09
7390;256.497;335.417;336.531
7400;241.163;329.979;334.741
7410;222.429;324.542;332.95
7420;203.695;319.105;331.16
7430;185.148;311.785;329.37
7440;166.6;304.458;327.269
7450;146.372;297.131;320.257
7460;126.145;286.244;313.244
7470;106.028;275.357;306.232
7480;85.91;264.877;299.219
7490;68.513;252.397;292.097
7500;51.116;239.703;283.343
7510;33.574;228.89;274.59
7520;16.032;218.076;265.837
7530;2.17;207.103;257.084
7540;-11.692;193.691;247.959
7550;-25.651;180.03;237.741
7560;-39.61;166.37;227.523
7570;-51.08;156.589;217.305
7580;-62.55;146.208;207.087
7590;-74.062;135.828;196.207
7600;-85.574;121.807;184.001
7610;-94.566;107.917;171.796
7620;-103.557;97.548;159.59
7630;-112.639;87.178;147.385
7640;-121.72;76.581;134.979
7650;-130.641;63.063;122.685
7660;-138.003;49.65;110.392
7670;-145.061;36.236;98.098
7680;-152.119;25.022;85.804
7690;-159.177;13.408;73.793
7700;-164.475;1.794;63.543
7710;-169.812;-11.859;53.294
7720;-174.757;-25.541;43.044
7730;-179.702;-39.222;32.794
7740;-182.375;-51.324;22.317
7750;-185.048;-63.426;12
7760;-187.052;-76.728;1.683
7770;-189.257;-90.03;-8.634
7780;-190.661;-103.167;-18.952
7790;-192.065;-113.863;-29.269
7800;-192.407;-124.96;-41.226
7810;-192.749;-136.137;-53.183
7820;-192.251;-147.313;-65.141
7830;-190.953;-158.297;-77.098
7840;-189.103;-169.28;-88.366
7850;-187.254;-176.948;-99.953
7860;-184.72;-184.615;-111.541
7870;-182.186;-191.043;-123.128
7880;-177.993;-197.47;-134.716
7890;-173.8;-203.277;-145.255
7900;-169.767;-206.53;-154.234
7910;-165.81;-209.782;-163.214
7920;-161.521;-211.074;-172.193
7930;-157.233;-212.367;-181.172
7940;-152.465;-212.687;-188.966
7950;-147.697;-213.097;-194.359
7960;-142.888;-211.466;-199.752
7970;-138.108;-208.956;-205.145
7980;-133.327;-206.445;-210.538
7990;-128.546;-203.935;-215.848
8000;-121.806;-200.266;-220.211
8010;-114.748;-195.273;-224.574
8020;-107.49;-190.28;-228.937
8030;-100.687;-187.127;-233.299
8040;-93.884;-183.974;-237.938
8050;-84.844;-180.821;-239.468
8060;-75.804;-176.739;-240.997
8070;-66.764;-172.658;-242.527
8080;-58.814;-170.937;-244.057
8090;-51.663;-169.215;-245.876
8100;-44.513;-167.494;-244.604
