timepoints (min);31: frq9,- -1;32: frq9,- -2;33: frq9,- -3;34: frq10,- -1;35: frq10,- -2;36: frq10,- -3;37: wc-1,+ -1;38: wc-1,+ -2;39: wc-1,+ -3;40: wc-2,+ -1;41: wc-2,+ -2;42: wc-2,+ -3;43: wc-1,- -1;44: wc-1,- -2;45: wc-1,- -3
720;-133.295;-160.036;-150.205;-254.759;-135.995;-150.556;-101.012;-99.703;-176.543;-98.776;-251.599;-91.681;-187.286;-218.639;-184.692
730;-131.108;-152.988;-145.622;-246.297;-129.315;-148.651;-91.056;-78.089;-163.326;-90.413;-235.927;-86.9;-180.956;-207.261;-176.23
740;-128.893;-146.907;-141.587;-239.4;-123.347;-145.867;-81.987;-59.48;-152.52;-83.027;-220.667;-82.187;-176.627;-198.92;-168.667
750;-127.355;-141.609;-136.523;-234.188;-118.408;-143.602;-70.01;-44.013;-140.783;-75.622;-207.253;-78.599;-172.836;-191.77;-161.457
760;-124.702;-134.142;-132.001;-229.761;-115.092;-138.309;-54.624;-33.497;-129.618;-67.979;-194.7;-75.148;-166.887;-182.68;-154.863
770;-122.624;-127.556;-124.543;-225.637;-111.987;-129.009;-39.239;-25.432;-118.231;-60.654;-183.667;-70.632;-161.859;-174.261;-150.927
780;-118.68;-121.614;-117.66;-222.102;-109.854;-120.719;-27.397;-18.085;-106.498;-54.726;-174.195;-65.897;-157.496;-167.028;-145.68
790;-115.25;-116.313;-108.863;-217.85;-107.937;-111.237;-16.225;-10.65;-96.438;-49.525;-165.613;-61.825;-152.95;-162.413;-139.975
800;-111.981;-111.559;-101.224;-212.735;-106.469;-103.406;-5.527;-3.554;-89.758;-44.464;-157.912;-58.769;-148.342;-159.815;-134.653
810;-109.36;-106.02;-94.259;-208.142;-105.022;-96.265;3.173;2.241;-85.435;-39.687;-151.218;-56.5;-142.558;-157.479;-130.412
820;-103.183;-101.003;-87.811;-203.066;-103.734;-90.745;13.509;7.693;-80.965;-35.187;-146.014;-54.521;-137.422;-154.292;-127.253
830;-98;-95.571;-81.899;-198.488;-102.369;-85.94;23.321;11.423;-76.929;-31.006;-141.238;-52.601;-132.494;-149.393;-124.875
840;-92.692;-90.621;-78.379;-192.426;-100.529;-81.504;30.572;14.602;-72.101;-27.292;-136.958;-50.555;-129.581;-144.492;-122.798
850;-85.655;-82.446;-71.648;-176.637;-91.397;-68.722;65.613;50.691;-53.461;-10.029;-116.734;-43.675;-120.991;-126.31;-110.126
860;-79.388;-72.292;-63.48;-160.832;-80.714;-56.366;104.894;87;-34.817;7.979;-96.402;-36.486;-113.241;-108.801;-96.781
870;-72.841;-62.121;-55.02;-143.543;-68.563;-44.004;122.968;110.735;-16.377;26.297;-75.563;-29.525;-103.524;-97.068;-81.823
880;-62.551;-49.023;-46.569;-126.246;-56.536;-35.134;136.716;118.648;1.597;38.436;-56.533;-23.403;-92.541;-87.216;-71.284
890;-51.773;-35.916;-37.047;-108.584;-44.26;-26.407;146.456;126.853;13.627;42.922;-36.66;-17.871;-81.122;-75.247;-65.029
900;-43.464;-22.798;-27.457;-97.373;-38.707;-20.277;153.353;127.295;24.552;45.486;-23.021;-13.434;-70.251;-63.298;-58.76
910;-34.862;-8.934;-17.997;-86.156;-34.732;-15.476;157.771;126.935;30.635;50.506;-14.566;-11.009;-62.611;-50.356;-55.004
920;-26.055;4.929;-8.708;-79.009;-32.796;-10.098;161.137;125.729;36.696;57.555;-10.102;-9.264;-56.281;-40.037;-53.581
930;-17.623;15.781;-0.346;-71.861;-31.742;-4.749;165.1;123.797;40.97;61.757;-5.141;-5.705;-50.787;-32.781;-50.067
940;-8.181;26.629;8.053;-64.867;-28.522;-0.381;170.512;120.941;42.714;63.621;-1.806;-2.804;-46.105;-25.96;-43.112
950;-0.103;35.754;14.205;-56.787;-23.343;3.864;178.119;117.846;43.623;65.348;2.976;0.053;-42.208;-17.538;-37.157
960;9.425;43.345;20.91;-48.712;-18.113;9.021;183.968;115.262;45.409;66.758;8.723;3.88;-38.44;-12.742;-33.78
970;19.427;50.926;27.356;-41.736;-12.623;15.614;187.901;113.252;47.561;69.03;14.362;6.506;-35.842;-9.026;-29.915
980;30.981;55.197;36.069;-34.762;-6.976;23.266;193.464;110.194;49.152;72.703;19.4;7.503;-31.749;-4.507;-25.695
990;42.37;59.46;44.95;-28.46;-3.35;29.91;199.15;105.99;52.21;73.17;23.27;8.22;-26.82;0.59;-21.71
1000;51.475;63.714;53.816;-22.049;-0.526;35.473;199.671;101.29;53.96;72.911;26.819;9.638;-20.122;6.849;-18.524
1010;59.697;64.957;62.423;-15.642;2.947;38.625;194.093;99.009;54.363;72.141;29.918;10.939;-16.956;11.22;-15.528
1020;67.196;66.198;68.58;-8.476;7.89;39.048;186.661;98.407;53.577;71.401;31.913;10.816;-13.663;15.274;-11.388
1030;73.093;64.448;73.968;-1.318;11.795;38.77;180.24;97.81;52.211;71.365;32.472;9.447;-9.512;18.129;-8.702
1040;79.385;62.695;77.288;7.078;15.88;37.604;172.627;95.979;51.194;71.232;34.032;8.743;-4.958;22.922;-7.17
1050;85.51;60.941;78.879;16.097;18.022;37.232;163.119;92.119;51.323;70.729;35.583;9.323;-0.959;28.844;-6.147
1060;91.327;60.272;80.407;25.103;19.914;37.821;153.585;88.501;52.379;70.487;38.991;10.972;1.69;35.515;-4.228
1070;89.972;59.601;82.007;32.504;25.866;39.629;142.598;86.167;53.72;69.787;42.997;12.474;4.191;40.598;-1.538
1080;88.798;60.009;83.455;39.894;32.626;41.669;132.698;85.288;56.084;68.837;46.856;13.367;6.241;44.772;2.424
1090;86.529;60.422;86.818;44.233;38.784;42.858;124.635;84.144;57.473;67.769;49.305;13.885;9.849;49.635;6.829
1100;84.11;60.839;90.978;45.586;44.835;44.254;115.916;82.824;57.839;66.44;50.987;14.002;13.415;53.812;9.83
1110;83.44;59.204;93.632;46.926;49.725;45.801;106.543;82.87;57.994;64.379;53.589;13.781;16.731;56.389;12.321
1120;82.368;57.582;95.923;47.25;52.894;48.393;95.663;82.573;58.124;62.206;55.935;14.027;17.927;60.6;12.613
1130;78.172;50.939;98.388;47.564;56.011;49.647;84.831;82.114;59.394;60.832;58.729;15.548;17.71;64.988;13.869
1140;74.085;44.315;98.567;48.435;57.616;51.177;75.663;81.461;61.482;60.548;60.198;16.953;18.19;69.643;15.191
1150;71.512;37.71;98.931;52.794;59.184;50.142;68.182;80.829;62.768;59.221;62.423;17.942;19.104;73.077;16.373
1160;69.044;28.744;99.406;57.147;61.215;49.56;61.328;79.381;62.743;56.374;63.004;18.672;20.141;75.377;18.348
1170;66.008;19.797;99.514;64.599;63.328;48.378;53.99;76.87;62.355;52.243;65.679;18.827;22.23;78.187;20.731
1180;62.999;15.033;100.407;72.044;65.849;48.835;46.044;74.44;62.762;47.625;66.832;18.976;26.088;79.97;22.001
1190;59.302;10.288;100.695;80.207;67.328;50.545;38.208;73.788;62.987;43.702;68.065;19.948;29.743;82.117;21.727
1200;55.597;5.563;100.779;86.479;66.87;52.772;30.018;74.961;62.85;39.155;67.45;21.423;32.238;79.055;22.335
1210;50.604;2.879;98.621;92.74;67.316;54.069;22.344;75.026;63.46;34.04;67.19;21.461;34.285;76.996;24.053
1220;45.588;0.214;96.429;99.225;66.118;51.954;15.139;72.724;63.469;29.447;67.164;21.226;36.901;75.818;25.358
1230;38.805;-2.505;91.955;105.534;65.086;48.686;8.731;70.253;63.017;24.459;66.924;21.948;39.195;76.158;25.759
1240;31.928;-5.208;85.92;111.792;66.28;44.728;3.288;67.36;61.12;23.056;66.24;22.752;43;76.4;25.48
1250;27.045;-7.896;79.384;115.329;68.626;42.021;1.032;64.695;59.684;22.321;65.593;23.156;46.234;75.709;25.846
1260;21.977;-10.445;72.32;118.859;70.95;39.407;1.293;62.768;58.19;21.062;65.414;22.786;50.306;74.41;26.263
1270;17.786;-12.983;64.991;120.411;71.389;36.821;1.25;61.24;56.409;18.804;66.352;22.629;54.53;74.263;27.444
1280;13.454;-10.722;58.818;121.913;72.908;35.102;-1.373;59.084;55.132;15.455;67.593;22.904;56.571;75.207;29.386
1290;9.682;-8.445;52.234;122.652;72.957;33.074;-4.622;55.832;53.315;12.442;68.671;23.198;57.211;77.106;31.745
1300;5.719;-6.151;47.373;122.152;75.125;31.975;-6.94;53.107;51.275;10.2;69.678;23.035;58.126;77.502;34.639
1310;1.399;-7.118;42.554;121.651;77.467;31.423;-8.065;51.462;49.705;8.382;69.572;23.12;59.687;76.973;37.498
1320;0.399;-8.065;36.977;121.228;75.236;30.677;-9.69;49.303;48.694;7.317;70.228;23.521;62.09;75.16;41.678
1330;-1.513;-11.115;31.528;120.587;71.613;32.078;-12.568;47.275;47.029;6.404;70.759;24.243;64.206;74.075;45.702
1340;-3.212;-14.151;25.858;121.508;66.861;35.351;-15.532;46.144;44.594;5.119;72.843;24.521;66.287;72.427;49.279
1350;-3.539;-17.173;19.278;124.117;61.283;38.148;-16.667;45.142;43.588;3.228;74.289;25.403;67.912;70.896;53.513
1360;-4.808;-19.121;12.366;126.734;55.651;39.759;-16.698;41.95;44.747;1.164;73.971;26.693;70.278;72.331;56.469
1370;-5.186;-21.062;5.83;129.11;49.904;36.994;-13.861;37.03;44.976;-1.06;72.717;26.359;73.117;72.997;60.957
1380;-6.29;-20.673;-1.211;131.348;45.085;34.164;-10.132;32.62;42.746;-3.866;71.132;24.706;76.288;74.331;64.639
1390;-7.061;-20.277;-7.223;130.883;41.086;29.513;-7.801;29.201;39.253;-6.107;70.077;22.857;78.197;73.381;67.283
1400;-7.251;-19.876;-12.018;128.163;38.151;26.46;-6.24;25.732;37.658;-8.905;69.018;20.808;79.097;74.258;69.165
1410;-6.872;-17.377;-16.549;125.451;36.99;23.903;-5.161;22.786;36.21;-11.052;68.456;18.851;79.993;74.921;71.39
1420;-6.108;-14.871;-19.787;123.605;36.218;21.584;-4.508;20.557;33.201;-13.203;66.521;17.676;80.47;76.45;73.208
1430;-3.708;-12.571;-22.784;121.713;34.625;18.279;-3.086;19.081;30.034;-14.552;65.538;16.409;81.413;78.437;73.573
1440;-1.407;-10.266;-25.171;119.145;31.997;14.062;-0.625;16.594;26.96;-15.39;64.468;14.983;82.545;78.887;74.177
1450;0.866;-9.386;-29.029;112.051;25.683;8.647;-2.942;7.305;21.817;-17.869;60.244;11.83;83.008;79.321;73.312
1460;3.479;-8.589;-31.152;104.957;17.313;4.901;-5.517;-2.444;17.481;-20.29;54.444;9.117;83.825;77.451;72.12
1470;5.211;-7.792;-34.314;96.223;10.423;3.194;-6.254;-9.337;14.524;-22.834;48.152;7.343;82.921;75.702;67.048
1480;7.262;-7.234;-37.139;87.49;3.617;2.057;-8.531;-14.032;11.036;-23.926;42.189;6.221;81.935;72.539;67.063
1490;7.633;-6.643;-38.404;79.063;-2.43;0.879;-12.647;-17.378;9.257;-22.982;36.644;5.055;77.996;68.897;65.346
1500;8.006;-6.051;-39.79;74.349;-7.063;-0.105;-18.291;-18.68;7;-22.233;32.846;3.459;72.541;65.131;64.069
1510;7.338;-6.539;-40.657;69.414;-11.177;0.306;-23.872;-20.127;6.073;-21.647;30.661;1.789;68.497;61.793;61.873
1520;6.51;-7.069;-40.992;64.754;-14.509;1.17;-28.713;-22.097;5.03;-21.855;28.938;0.666;64.811;58.288;59.919
1530;4.768;-10.439;-41.727;60.095;-17.537;1.72;-30.797;-25.572;2.468;-21.702;27.73;0.048;62.846;56.277;57.204
1540;1.506;-13.629;-42.622;53.383;-19.586;0.993;-31.641;-28.023;1.815;-22.063;25.261;-1.422;62.378;53.32;55.07
1550;-1.197;-16.523;-43.331;46.532;-21.556;-2.134;-35.539;-28.79;2.972;-22.517;23.404;-3.148;62.103;52.532;52.39
1560;-3.461;-19.777;-44.08;39.847;-23.726;-6.702;-40.09;-29.019;2.439;-22.607;21.028;-5.236;61.999;51.502;49.603
1570;-5.793;-22.989;-46.105;34.21;-25.949;-11.952;-44.106;-29.866;0.097;-22.67;18.968;-7.126;61.542;51.703;45.564
1580;-7.046;-25.766;-48.25;28.828;-28.2;-18.721;-49.608;-30.811;-2.779;-22.661;16.097;-8.966;61.174;49.003;42.574
1590;-8.077;-28.542;-51.073;23.592;-29.601;-26.568;-55.334;-31.99;-5.766;-22.309;12.292;-10.519;59.725;47.018;39.512
1600;-9.989;-31.477;-53.618;16.514;-30.185;-35.575;-59.959;-33.848;-10.006;-20.759;9.077;-12.178;57.917;44.789;35.938
1610;-11.749;-33.84;-54.99;9.575;-31.185;-42.64;-64.782;-36.708;-15.618;-18.462;7.124;-13.563;57.121;42.618;33.548
1620;-13.982;-36.417;-55.942;1.058;-31.545;-46.316;-72.611;-40.461;-19.057;-16.177;6.695;-13.101;56.181;40.594;31.97
1630;-15.939;-39.212;-56.374;-7.404;-33.39;-48.808;-80.789;-43.508;-20.497;-13.859;6.183;-11.63;55.04;37.925;30.844
1640;-19.017;-42.008;-56.215;-15.17;-35.996;-49.647;-89.73;-46.995;-21.628;-11.807;5;-11.52;54.33;32.928;30.159
1650;-22.066;-44.811;-57.257;-21.665;-41.381;-49.908;-99.473;-50.629;-24.844;-9.913;2.444;-11.59;54.588;26.41;30.233
1660;-27.531;-47.814;-57.906;-28.16;-47.164;-50.368;-108.286;-54.805;-27.982;-9.68;0.585;-10.611;54.734;19.898;28.087
1670;-32.389;-50.817;-59.421;-35.785;-54.108;-51.263;-115.201;-59.177;-29.261;-9.034;-0.77;-9.697;54.001;15.885;24.979
1680;-39.567;-52.6;-60.109;-43.41;-57.997;-52.28;-121.465;-63.846;-30.423;-8.25;-1.487;-9.446;51.317;14.84;23.001
1690;-46.352;-54.383;-61.128;-50.648;-61.783;-53.457;-129.312;-68.996;-30.772;-7.839;-1.745;-9.808;48.364;15.37;20.666
1700;-53.577;-56.139;-61.837;-56.421;-63.145;-55.76;-136.463;-73.517;-31.379;-7.946;-2.421;-10.284;43.916;14.366;16.814
1710;-60.746;-55.157;-62.018;-62.193;-63.326;-59.011;-143.957;-76.879;-34.626;-7.297;-2.937;-10.363;40.066;14.163;12.512
1720;-65.276;-54.175;-61.124;-65.884;-61.737;-62.046;-148.425;-77.417;-37.117;-5.913;-4.593;-10.583;37.712;12.221;12.386
1730;-69.254;-50.006;-61.03;-69.575;-59.388;-63.833;-152.047;-79.894;-38.705;-4.741;-6.91;-11.462;36.371;9.246;8.046
1740;-72.072;-45.836;-60.75;-71.439;-57.777;-65.223;-155.604;-82.685;-40.832;-5.621;-9.186;-12.153;36.257;7.335;7.364
1750;-75.317;-41.666;-61.153;-74.654;-55.966;-64.934;-158.234;-85.817;-43.135;-6.265;-11.404;-11.411;36.004;5.726;7.39
1760;-78.008;-35.537;-61.577;-78.234;-57.161;-66.97;-160.225;-89.505;-45.263;-6.193;-13.137;-9.615;35.731;4.848;8.457
1770;-80.665;-29.407;-62.862;-81.527;-58.371;-69.022;-162.248;-93.115;-46.843;-4.927;-15.032;-8.007;34.423;3.019;8.563
1780;-82.76;-22.902;-63.706;-85.137;-60.541;-72.643;-164.857;-94.644;-47.211;-2.604;-16.385;-7.305;32.397;-0.065;8.364
1790;-83.917;-16.625;-64.673;-88.528;-62.308;-74.106;-167.884;-94.87;-48.121;-0.378;-17.526;-6.43;29.371;-2.905;6.808
1800;-85.019;-10.348;-64.68;-92.28;-63.857;-74.188;-166.912;-95.836;-49.04;2.174;-19.335;-5.381;27.215;-6.003;5.812
1810;-85.374;-2.914;-64.418;-96.239;-65.353;-73.069;-166.45;-97.601;-50.399;4.074;-20.91;-4.437;24.45;-6.848;4.469
1820;-85.593;4.519;-62.796;-101.748;-66.742;-69.491;-165.491;-100.337;-51.247;4.977;-22.926;-3.189;21.479;-6.92;2.874
1830;-85.697;11.142;-60.781;-106.284;-68.957;-66.094;-163.257;-102.548;-50.164;5.429;-23.686;-2.73;18.473;-6.179;0.211
1840;-85.36;17.71;-57.818;-111.524;-72.204;-61.417;-161.156;-105.091;-48.463;5.68;-23.548;-2.843;16.057;-7.343;-2.484
1850;-85.821;24.279;-56.817;-114.45;-75.61;-55.034;-160.497;-106.178;-45.04;5.145;-23.486;-3.003;14.225;-9.468;-6.989
1860;-85.361;28.397;-56.815;-117.279;-78.615;-49.306;-159.805;-105.659;-42.268;4.142;-23.943;-2.839;11.857;-11.367;-10.808
1870;-84.978;32.399;-55.494;-117.923;-81.469;-43.458;-155.902;-103.757;-41.661;2.637;-25.237;-2.277;8.654;-13.537;-13.403
1880;-83.874;37.863;-54.421;-118.175;-83.543;-38.852;-149.869;-102.921;-41.24;1.062;-26.451;-1.428;5.199;-15.393;-15.988
1890;-81.75;43.259;-51.308;-117.119;-84.298;-34.039;-141.786;-101.982;-40.422;-0.316;-26.672;0.186;2.788;-15.135;-18.137
1900;-78.626;48.655;-48.484;-114.839;-83.799;-29.425;-136.212;-100.87;-40.617;-0.903;-25.892;1.029;0.094;-14.381;-20.428
1910;-74.326;55.87;-45.901;-112.559;-84.219;-25.771;-133.058;-100.247;-40.2;-0.494;-26.007;0.75;-2.156;-12.655;-20.926
1920;-68.981;62.961;-41.328;-110.628;-78.959;-21.803;-130.492;-99.393;-39.414;0.258;-26.815;0.098;-4.774;-13.388;-20.703
1930;-62.796;67.64;-37.237;-107.537;-75.977;-19.145;-127.287;-97.644;-39.171;0.92;-28.408;-0.262;-6.717;-15.077;-21.35
1940;-55.241;72.319;-31.906;-104.777;-70.597;-15.559;-123.556;-94.96;-39.248;1.585;-31.29;0.531;-8.28;-17.29;-21.943
1950;-48.287;76.721;-26.265;-99.306;-65.505;-11.65;-120.443;-92.189;-38.486;2.709;-33.443;2.447;-9.57;-17.761;-23.09
1960;-41.207;76.72;-19.023;-93.836;-60.727;-5.607;-117.236;-89.549;-34.859;3.396;-35.437;4.76;-12.556;-20.811;-23.752
1970;-35.887;76.719;-11.927;-86.356;-58.749;2.622;-115.086;-88.07;-32.579;3.615;-34.825;6.514;-15.514;-22.321;-24.737
1980;-29.469;74.21;-4.03;-78.036;-57.648;9.774;-113.004;-83.996;-32.262;4.153;-32.989;7.877;-20.673;-22.723;-26.396
1990;-22.531;71.701;4.513;-70.673;-55.447;18.246;-108.583;-80.284;-29.763;5.517;-33.076;10.011;-25.641;-22.524;-29.368
2000;-13.559;69.599;13.937;-65.05;-52.845;24.345;-101.971;-75.698;-28.055;5.734;-32.977;12.825;-29.986;-24.132;-33.172
2010;-1.266;67.705;22.174;-59.537;-48.332;31.161;-94.479;-72.301;-26.592;3.606;-36.098;14.317;-34.274;-26.625;-36.935
2020;10.964;65.811;30.349;-55.884;-45.979;36.237;-87.39;-69.513;-25.04;1.229;-38.651;14.083;-37.818;-29.942;-40.699
2030;22.319;62.993;36.604;-52.055;-43.71;41.661;-81.899;-66.937;-23.923;-2.254;-40.724;14.745;-41.417;-34.632;-44.034
2040;33.694;60.175;42.349;-47.44;-41.262;46.873;-76.749;-65.494;-23.83;-5.291;-42.514;16.046;-45.181;-39.428;-46.37
2050;44.807;57.357;47.134;-40.663;-38.577;52.086;-72.826;-64.277;-25.112;-9.628;-44.381;17.139;-49.105;-44.741;-48.441
2060;53.727;53.814;49.123;-33.646;-33.946;55.526;-65.895;-63.076;-25.091;-14.694;-46.895;16.88;-51.993;-50.058;-50.989
2070;62.567;50.27;50.952;-25.571;-29.474;56.974;-57.817;-60.932;-24.76;-19.117;-48.368;14.952;-54.269;-56.142;-53.217
2080;70.446;47.319;50.559;-17.89;-22.323;59.382;-52.052;-58.237;-23.901;-22.941;-50.275;13.977;-56.065;-62.236;-56.057
2090;77.884;44.167;49.897;-11.639;-14.314;60.234;-43.444;-54.759;-23.764;-26.83;-50.799;14.488;-57.368;-67.299;-57.8
2100;86.381;41.015;52.779;-7.072;-7.786;61.534;-31.629;-51.433;-24.378;-29.815;-51.905;14.341;-58.126;-71.754;-57.179
2110;93.957;38.91;55.572;-1.225;-1.917;62.792;-20.408;-49.67;-23.817;-31.735;-53.335;14.977;-59.022;-75.313;-56.226
2120;101.527;37.046;57.446;5.308;3.837;61.777;-11.685;-47.956;-21.789;-33.366;-54.662;16.246;-59.879;-78.61;-57.567
2130;110.297;33.654;60.008;11.441;8.592;61.221;-4.068;-44.372;-19.181;-35.346;-54.211;17.441;-60.643;-81.139;-58.777
2140;119.17;29.291;60.451;19.233;12.657;59.945;5.606;-40.01;-17.215;-36.983;-51.654;18.521;-61.301;-83.583;-59.815
2150;125.163;24.928;62.281;26.597;16.708;58.903;18.56;-36.234;-14.099;-37.423;-50.611;20.404;-61.279;-86.266;-59.714
2160;130.99;19.112;64.119;33.001;21.741;59.909;32.401;-31.877;-11.885;-37.353;-48.799;22.251;-62.876;-89.972;-59.966
2170;135.142;13.055;65.146;39.433;22.887;61.066;44.495;-26.574;-10.132;-37.883;-46.717;23.897;-63.524;-93.619;-60.251
2180;139.135;8.299;66.194;43.225;24.364;63.948;56.094;-21.902;-6.754;-38;-42.771;25.532;-64.494;-97.666;-61.194
2190;140.852;3.343;65.77;47.43;21.371;66.815;68.521;-17.639;-3.629;-37.535;-36.353;26.479;-65.319;-100.088;-62.178
2200;142.804;-0.692;65.324;48.342;18.537;69.683;82.419;-14.353;-2.099;-36.59;-31.025;26.204;-66.499;-101.77;-63.52
2210;144.665;-2.455;61.957;48.412;19.302;69.966;96.563;-11.025;-1.432;-36.203;-25.841;25.851;-66.909;-101.039;-64.543
2220;144.317;-3.164;58.59;45.844;21.712;67.652;109.782;-7.306;0.505;-35.553;-23.109;26.781;-66.454;-98.938;-65.748
2230;143.21;-3.159;55.134;42.116;25.981;63.579;122.422;-4.048;4.709;-35.377;-20.986;27.022;-65.012;-96.92;-65.739
2240;141.218;-3.153;49.821;37.836;28.97;57.724;132.276;0.399;7.486;-35.865;-17.352;25.85;-63.761;-95.702;-64.541
2250;137.026;-3.197;44.714;36.181;32.934;51.439;140.124;2.948;11.181;-35.429;-13.683;23.56;-63.898;-92.546;-63.473
2260;130.548;-4.047;40.273;34.601;36.974;44.926;146.023;6.046;17.505;-33.073;-7.781;21.166;-63.967;-88.305;-61.395
2270;124.069;-4.966;35.99;37.244;43.298;40.519;151.858;8.724;23.39;-31;-2.717;20.676;-63.793;-83.011;-58.563
2280;118.674;-6.08;31.934;39.952;51.338;37.657;155.942;9.167;28.713;-28.43;2.132;19.854;-62.585;-76.168;-55.448
2290;111.6;-7.194;27.877;42.339;59.357;34.794;158.197;10.857;34.738;-25.848;6.989;18.385;-61.452;-69.908;-51.606
2300;104.705;-8.607;24.092;42.13;65.066;32.458;162.046;13.354;42.858;-22.61;12.601;17.963;-60.379;-64.075;-46.48
2310;98.724;-9.339;20.628;41.872;69.012;30.68;166.077;16.03;51.521;-18.592;19.891;17.088;-61.086;-59.17;-40.234
2320;92.592;-10.072;16.783;40.028;70.439;28.108;167.683;18.639;59.23;-14.814;28.079;17.367;-62.985;-54.543;-34.648
2330;87.789;-11.182;14.658;38.059;70.094;24.561;173.668;19.916;63.844;-11.637;36.273;17.426;-65.55;-49.321;-28.823
2340;82.697;-12.092;12.532;38.514;70.124;21.132;179.783;19.902;68.701;-8.652;43.692;16.164;-68.251;-44.193;-24.923
2350;76.712;-13.292;11.993;39.135;71.634;16.057;181.178;19.841;72.461;-5.908;49.968;15.15;-69.211;-38.626;-21.175
2360;70.348;-14.502;11.454;40.596;75.417;11.415;181.859;22.415;75.033;-3.909;53.815;12.793;-69.928;-34.135;-18.135
2370;64.018;-15.952;12.283;40.388;79.679;9.596;184.069;25.868;77.4;-1.709;56.822;9.139;-69.686;-30.217;-14.45
2380;55.411;-17.401;13.112;42.019;83.879;8.057;185.399;27.87;80.083;0.597;57.385;5.921;-69.283;-27.237;-10.275
2390;46.666;-16.491;15.519;43.559;89.263;7.286;182.495;29.443;82.95;1.775;56.56;3.192;-69.738;-24.412;-6.008
2400;39.426;-15.581;16.766;44.994;94.538;6.532;175.617;31.952;83.996;2.03;56.52;-0.074;-70.465;-19.623;-2.919
2410;32.097;-15.839;17.012;48.59;98.778;5.251;167.63;34.812;83.556;2.949;56.08;-1.637;-68.895;-16.88;0.079
2420;24.368;-15.857;15.908;52.448;103.073;3.859;162.047;36.786;84.503;4.359;55.92;-2.097;-67.47;-14.086;3.542
