timepoints (min);31: frq9,- -1;32: frq9,- -2;33: frq9,- -3;34: frq10,- -1;35: frq10,- -2;36: frq10,- -3;37: wc-1,+ -1;38: wc-1,+ -3;39: wc-2,+ -1;40: wc-2,+ -2;41: wc-2,+ -3;42: wc-1,- -1;43: wc-1,- -2;average;45: wc-2,- -1
720;-198.987;-152.301;-297.062;-305.214;-173.204;-239.315;-112.947;-208.778;-205.633;-306.453;-180.576;-234.132;-201.918;-201.918;-302.071
730;-189.264;-147.583;-278.239;-295.068;-165.427;-233.492;-101.058;-198.952;-202.264;-294.191;-166.319;-222.21;-192.328;-192.328;-279.981
740;-179.467;-144.987;-262.56;-284.36;-159.28;-229.493;-91.413;-190.44;-199.787;-277.173;-154.12;-211.92;-183.36;-183.36;-261.147
750;-170.309;-142.809;-249.207;-274.964;-153.309;-225.822;-82.648;-182.868;-193.865;-261.99;-143.855;-203.145;-175.599;-175.599;-243.605
760;-161.016;-139.654;-238.721;-266.501;-147.625;-222.572;-76.719;-173.819;-188.807;-248.671;-134.934;-193.876;-168.448;-168.448;-228.298
770;-152.047;-134.859;-229.509;-259.671;-141.5;-219.59;-72.444;-164.073;-184.667;-236.235;-129.795;-186.09;-161.214;-161.214;-213.893
780;-143.395;-130.173;-221.278;-254.127;-135.091;-215.775;-66.987;-155.382;-181.117;-225.173;-125.081;-179.48;-154.824;-154.824;-200.904
790;-135.925;-124.775;-213.25;-247.6;-128.25;-211.863;-62.1;-147.45;-175.813;-214.662;-120.875;-173.612;-148.85;-148.85;-189.075
800;-129.192;-120.009;-205.862;-241.566;-122.072;-206.522;-55.794;-139.014;-171.143;-205.164;-116.951;-167.078;-143.915;-143.915;-178.235
810;-123.667;-115.336;-198.906;-234.382;-115.282;-199.582;-50.457;-131.333;-167.029;-197.539;-113.442;-160.02;-139.513;-139.513;-167.869
820;-118.428;-110.787;-192.625;-226.753;-108.535;-193.306;-46.951;-124.339;-163.035;-190.224;-108.3;-153.916;-136.615;-136.615;-158.413
830;-112.988;-106.149;-186.423;-219.94;-102.357;-185.881;-43.006;-118.024;-159.476;-183.506;-103.613;-148.5;-131.964;-131.964;-150.024
840;-107.645;-101.673;-180.791;-211.136;-96.948;-178.882;-40.944;-111.685;-156.296;-174.393;-99.207;-143.842;-127.751;-127.751;-142.329
850;-92.416;-86.382;-159.774;-191.876;-81.773;-163.162;-22.417;-89.442;-149.586;-157.147;-82.655;-127.816;-103.912;-103.912;-115.75
860;-77.426;-70.863;-137.187;-172.633;-66.588;-146.766;-3.042;-66.042;-143.123;-139.514;-65.543;-111.769;-79.756;-79.756;-88.92
870;-63.229;-59.59;-114.201;-153.935;-50.249;-131.378;16.797;-42.696;-136.629;-121.895;-48.929;-95.045;-64.528;-64.528;-61.668
880;-49.752;-48.874;-90.929;-135.3;-36.023;-115.896;26.868;-28.164;-129.543;-104.969;-36.142;-77.882;-55.202;-55.202;-34.433
890;-38.442;-43.431;-68.727;-120.249;-22.122;-102.822;31.782;-15.638;-122.44;-87.756;-23.104;-60.931;-46.489;-46.489;-7.593
900;-26.318;-40.003;-48.512;-109.953;-12.634;-89.999;33.476;-3.717;-114.481;-70.561;-14.568;-43.686;-39.147;-39.147;9.764
910;-17.569;-34.822;-37.028;-94.796;-4.757;-79.619;33.21;2.802;-106.506;-53.664;-6.3;-34.953;-33.434;-33.434;18.99
920;-10.401;-30.772;-32.483;-75.985;3.18;-69.221;32.338;7.199;-98.28;-40.96;-1.379;-28.613;-27.973;-27.973;28.386
930;-3.183;-26.475;-26.34;-57.194;8.422;-62.466;31.122;12.158;-89.323;-28.277;5.463;-22.17;-24.212;-24.212;33.185
940;1.851;-20.954;-22.168;-47.069;13.088;-55.756;28.954;17.697;-80.358;-14.135;12.907;-18.272;-21.373;-21.373;36.821
950;7.248;-15.603;-16.907;-36.995;17.742;-48.848;26.326;24.193;-71.383;-0.013;18.1;-16.013;-17.777;-17.777;40.588
960;11.588;-9.78;-14.111;-26.609;22.184;-42.273;23.71;30.284;-65.053;7.785;24.283;-13.758;-14.485;-14.485;42.366
970;16.047;-3.115;-10.5;-17.769;25.571;-34.973;21.416;36.756;-57.639;15.567;27.856;-11.247;-11.092;-11.092;43.546
980;19.944;3.127;-7.677;-8.926;27.231;-27.689;20.308;43.528;-50.221;25.291;30.258;-6.981;-7.112;-7.112;44.654
990;23.2;10.14;-4.49;-1.47;29.2;-19.84;20.92;50.92;-42.71;30.73;32.28;-2.62;-3.6;-3.6;45.93
1000;26.602;17.311;-1.204;6.137;29.669;-10.596;21.537;58.49;-37.717;36.16;34.139;1.762;0.155;0.155;46.514
1010;29.08;25.929;2.81;14.465;30.222;-1.468;21.728;64.589;-32.442;42.342;35.907;3.796;3.464;3.464;47.344
1020;30.382;33.063;6.447;23.276;29.997;7.634;22.645;69.812;-27.165;48.035;39.594;5.614;5.987;5.987;47.869
1030;31.007;42.577;10.129;33.404;29.871;15.781;23.292;76.173;-21.907;53.913;43.88;8.148;8.511;8.511;48.337
1040;29.51;52;12.931;42.406;28.686;23.331;26.12;82.728;-18.526;59.779;48.478;10.697;11.238;11.238;48.969
1050;27.683;61.1;15.781;51.478;27.511;29.392;27.927;88.474;-15.143;64.954;51.588;12.971;14.257;14.257;49.455
1060;26.02;68.672;17.992;61.024;26.565;33.415;31.448;93.451;-11.759;70.971;54.897;14.769;17.427;17.427;49.568
1070;24.417;75.956;21.111;69.567;25.389;37.617;36.55;98.636;-8.72;76.977;57.274;16.665;21.446;21.446;49.246
1080;24.299;79.701;23.516;77.232;24.375;40.618;41.057;102.833;-5.399;82.214;59.449;18.733;23.516;23.516;48.996
1090;26.065;80.407;27.496;80.978;23.005;43.882;46.925;106.075;-2.076;84.667;61.496;20.776;24.271;24.271;48.729
1100;26.881;81.456;30.841;84.645;21.549;47.66;52.485;108.876;1.285;87.108;61.297;22.879;20.626;20.626;48.424
1110;27.493;81.096;32.72;89.587;20.244;51.683;57.427;110.071;4.927;89.538;60.443;24.987;16.472;16.472;48.037
1120;28.681;82.202;34.53;95.088;18.217;56.697;60.77;111.118;9.011;92.637;58.903;27.52;11.349;11.349;47.43
1130;29.549;82.527;35.743;103.801;15.613;61.595;63.477;111.408;13.096;96.668;57.543;30.307;8.572;8.572;46.504
1140;30.045;83.8;36.499;112.988;12.854;65.207;66.798;111.882;17.139;100.683;58.296;32.923;6.682;6.682;45.73
1150;29.508;83.924;38.297;122.176;9.53;68.829;70.554;112.179;21.024;104.644;59.049;34.948;5.708;5.708;45.544
1160;28.218;85.218;42.07;125.038;6.711;71.803;74.833;112.257;24.911;108.837;60.076;35.882;6.224;6.224;45.801
1170;26.221;84.34;45.72;122.51;4.194;74.898;78.827;112.067;28.8;113.016;59.615;37.008;6.988;6.988;46.751
1180;25.307;85.346;49.562;117.312;2.596;79.343;84.227;112.791;31.169;117.142;57.344;38.142;8.158;8.158;47.145
1190;24.44;84.945;53.032;119.233;0.738;83.863;91.215;112.25;34.783;119.775;54.185;39.522;9.375;9.375;47.702
1200;25.497;84.638;56.022;120.932;-1.898;87.094;98.547;110.291;38.403;122.437;51.059;41.67;10.205;10.205;48.159
1210;26.825;83.363;59.047;122.993;-4.537;88.174;105.981;107.988;41.83;125.086;46.923;43.971;12.165;12.165;49.109
1220;28.04;81.991;62.718;126.92;-6.097;89.313;113.439;105.342;44.186;127.723;42.266;45.835;15.411;15.411;49.781
1230;29.156;79.822;65.875;130.238;-5.964;88.994;117.684;103.482;47.669;128.549;38.769;46.181;17.903;17.903;50.718
1240;29.952;77.888;69.008;131.36;-5.832;88.76;120.312;101.888;51.16;129.36;34.312;46.176;19.336;19.336;51.56
1250;28.353;76.004;72.304;132.659;-3.781;91.026;121.919;101.464;54.595;130.117;30.38;46.211;19.548;19.548;51.963
1260;26.879;72.633;74.365;132.119;-0.797;93.233;125.002;100.659;57.238;130.171;26.604;47.887;19.89;19.89;51.728
1270;27.369;68.999;76.911;131.743;2.247;96.901;125.831;99.835;59.889;130.211;22.871;50.865;19.825;19.825;51.253
1280;29.224;61.249;78.198;128.883;5.247;100.411;124.839;97.551;62.549;130.236;20.373;52.462;19.45;19.45;50.779
1290;32.983;51.543;79.175;124.978;8.288;104.225;121.251;95.226;65.38;130.168;17.378;54.055;18.442;18.442;50.398
1300;37.586;41.644;79.877;120.957;11.561;108.008;116.67;92.161;67.458;130.262;15.867;53.935;17.521;17.521;50.26
1310;42.095;33.072;80.354;115.573;13.633;111.896;111.678;89.402;69.542;130.35;16.558;53.059;16.203;16.203;50.121
1320;47.088;24.59;79.962;109.963;16.132;116.161;106.357;86.214;71.676;130.313;16.955;52.147;15.09;15.09;50.451
1330;50.056;20.414;79.741;105.288;18.514;120.886;102.781;84.123;73.536;131.456;18.55;51.996;13.987;13.987;51.101
1340;52.027;21.963;78.084;99.895;21.336;125.473;98.45;82.29;76.201;132.587;20.13;52.85;14.473;14.473;51.75
1350;51.868;23.333;76.321;94.689;23.746;128.162;94.958;79.644;78.871;132.426;24.189;53.926;15.962;15.962;52.724
1360;51.977;25.59;74.958;90.443;24.798;130.863;92.579;76.376;81.466;132.255;28.693;55.002;17.985;17.985;53.778
1370;49.645;27.667;73.639;86.277;25.37;132.787;90.495;73.253;84.266;131.625;33.869;55.266;21.48;21.48;54.662
1380;48.121;28.69;71.685;80.842;25.039;134.767;89.403;71.646;87.073;130.981;38.318;54.949;24.934;24.934;55.786
1390;47.597;29.406;70.256;74.167;24.567;134.769;88.397;69.669;89.884;128.363;40.493;54.57;28.866;28.866;56.406
1400;47.271;30.121;68.019;66.787;24.096;134.803;85.57;68.064;91.866;125.793;42.02;54.308;31.808;31.808;57.017
1410;48.985;28.453;66.988;59.888;23.773;133.46;81.176;68.084;93.894;123.21;43.545;53.384;33.672;33.672;56.548
1420;49.774;26.48;65.984;53.048;23.291;132.166;78.062;68.454;95.931;119.413;45.263;52.971;35.634;35.634;55.197
1430;49.325;21.578;65.697;49.543;22.768;130.157;73.894;68.348;98.12;115.72;47.098;52.636;37.208;37.208;53.844
1440;47.641;16.818;65.538;45.357;22.199;127.451;67.997;68.349;99.074;112.014;49.804;53.254;38.942;38.942;52.731
1450;42.154;7.817;59.103;39.828;20.434;123.044;58.458;65.313;97.554;105.941;48.538;50.414;36.916;36.916;47.11
1460;37.068;1.501;52.274;31.778;18.67;118.637;48.354;62.597;96.034;98.508;47.154;47.463;34.619;34.619;41.49
1470;32.139;-4.339;42.646;23.742;17.414;114.044;37.812;59.902;94.514;91.074;47.531;43.577;32.108;32.108;35.269
1480;28.131;-6.993;33.992;16.786;17.72;110.531;30.251;59.469;89.874;83.759;48.301;39.69;30.99;30.99;29.008
1490;24.441;-9.527;25.764;13.25;19.018;107.549;24.033;57.655;85.234;75.363;50.03;36.708;29.848;29.848;22.727
1500;23.152;-12.426;20.954;10.574;20.262;101.527;18.652;54.593;80.594;67.007;52.652;33.705;29.828;29.828;18.743
1510;22.819;-17.446;18.498;8.35;21.432;96.132;13.503;52.868;76.474;58.651;54.804;33.068;28.914;28.914;16.894
1520;22.168;-21.996;23.623;6.382;22.668;89.218;10.514;51.59;71.474;50.041;55.971;31.748;28.731;28.731;15.084
1530;20.222;-25.786;23.349;5.891;24.214;82.821;8.034;49.919;66.578;41.432;55.16;31.074;29.364;29.364;14.539
1540;18.724;-28.428;23.739;6.666;26.822;76.863;5.393;48.435;61.681;32.902;52.069;30.946;30.879;30.879;14.188
1550;12.746;-30.469;21.89;7.281;28.868;70.837;2.338;47.67;57.517;24.372;49.364;32.167;31.008;31.008;13.666
1560;7.371;-30.352;20.463;7.484;30.954;66.167;-1.004;46.676;52.97;17.029;44.618;33.612;31.313;31.313;13.421
1570;1.516;-30.166;19.037;7.604;31.985;61.428;-6.179;44.141;48.422;9.806;40.167;35.058;30.65;30.65;12.85
1580;-4.568;-29.459;17.829;7.185;34.055;55.572;-14.156;39.63;43.874;2.582;34.502;35.388;30.621;30.621;12.279
1590;-11.073;-32.164;16.445;8.977;35.967;49.634;-20.4;35.16;38.167;-2.566;30.317;34.604;30.514;30.514;11.639
1600;-15.677;-35.469;13.236;10.257;39.182;44.688;-26.443;31.058;32.894;-6.433;25.872;33.585;30.637;30.637;10.81
1610;-20.13;-40.185;9.502;8.459;42.597;39.763;-34.872;28.221;27.614;-10.397;21.772;32.759;30.553;30.553;9.679
1620;-22.469;-44.646;5.651;6.676;46.281;35.564;-43.135;24.99;21.694;-14.279;17.342;32.644;30.368;30.368;8.341
1630;-23.926;-49.171;2.233;1.532;48.302;31.531;-51.767;20.283;15.854;-18.96;13.597;32.793;30.063;30.063;6.863
1640;-26.423;-53.531;-0.203;-3.446;50.708;29.661;-60.039;14.647;10.324;-21.681;8.379;32.887;28.668;28.668;6.032
1650;-27.425;-56.884;-1.999;-8.143;53.113;27.779;-66.745;8.894;4.794;-24.396;3.801;32.72;27.057;27.057;5.188
1660;-29.734;-61.022;-4.203;-11.268;55.847;26.96;-73.268;2.541;-0.775;-27.142;-1.76;34.68;26.046;26.046;5.285
1670;-31.455;-65.112;-6.487;-14.219;58.097;25.301;-81.556;-3.17;-6.101;-28.688;-5.786;35.335;24.549;24.549;5.463
1680;-33.066;-65.808;-9.447;-16.697;59.666;23.759;-89.348;-9.199;-11.426;-30.234;-9.028;36.046;23.47;23.47;5.446
1690;-34.67;-66.47;-13.112;-18.463;60.451;21.302;-98.08;-15.537;-16.752;-31.917;-12.248;35.429;22.072;22.072;4.608
1700;-36.495;-67.139;-13.859;-21.75;59.803;18.873;-106.509;-21.985;-21.597;-33.434;-14.149;34.941;21.313;21.313;3.902
1710;-39.167;-71.265;-14.276;-25.196;58.543;17.403;-113.948;-28.105;-26.491;-33.592;-15.395;34.508;19.865;19.865;3.077
1720;-40.977;-75.501;-13.372;-28.738;57.463;15.76;-119.51;-34.081;-31.385;-33.749;-18.4;34.454;19.057;19.057;3.495
1730;-43.894;-80.937;-13.534;-34.177;54.65;14.826;-123.657;-40.714;-34.182;-35.223;-22.183;35.335;15.603;15.603;3.833
1740;-45.451;-86.359;-13.975;-39.484;50.597;14.127;-128.99;-47.121;-36.779;-35.673;-25.926;36.217;12.768;12.768;4.771
1750;-47.036;-85.701;-17.979;-44.934;46.641;12.268;-134.272;-53.982;-39.232;-36.123;-29.828;37.022;11.654;11.654;4.826
1760;-49.495;-82.777;-23.301;-49.243;42.439;10.65;-139.193;-61.452;-41.684;-36.461;-34.033;36.79;10.262;10.262;4.494
1770;-52.949;-80.479;-35.108;-51.395;38.83;8.588;-143.276;-69.363;-43.257;-35.959;-36.599;37.046;8.785;8.785;3.949
1780;-56.172;-80.261;-40.742;-53.146;35.063;6.415;-147.302;-76.957;-43.641;-35.691;-39.538;37.621;6.486;6.486;3.679
1790;-59.057;-80.05;-45.142;-56.16;30.775;3.869;-150.622;-84.251;-43.978;-35.168;-40.197;38.244;5.895;5.895;3.181
1800;-58.632;-80.919;-47.219;-58.334;25.8;1.392;-152.764;-91.04;-44.314;-34.846;-41.057;37.949;6.537;6.537;2.623
1810;-57.887;-84.563;-48.159;-60.595;20.859;-3.404;-154.32;-97.069;-42.811;-34.923;-41.523;36.764;6.383;6.383;1.633
1820;-56.942;-87.574;-48.96;-62.306;15.651;-10.106;-153.298;-101.612;-41.121;-35;-39.309;35.593;6.121;6.121;0.923
1830;-55.517;-92.857;-49.341;-64.978;9.468;-16.888;-150.117;-105.022;-39.432;-35.56;-37.426;34.448;5.415;5.415;-0.039
1840;-54.163;-98.063;-50.641;-67.56;3.16;-24.404;-146.469;-108.354;-37.382;-37.52;-37.023;33.57;6.346;6.346;-0.713
1850;-52.208;-103.019;-50.866;-70.462;-3.694;-31.719;-142.738;-111.167;-34.985;-39.48;-37.909;32.483;7.132;7.132;-1.154
1860;-50.495;-105.559;-50.691;-71.579;-10.054;-38.619;-138.127;-114.152;-32.539;-41.669;-39.43;31.12;7.694;7.694;-1.354
1870;-48.807;-106.605;-50.047;-73.537;-16.734;-45.487;-133.786;-116.474;-30.094;-43.872;-41.192;28.921;7.48;7.48;-1.803
1880;-49.159;-103.314;-47.843;-74.054;-20.727;-51.131;-128.694;-118.639;-27.728;-45.274;-42.677;25.506;6.539;6.539;-2.011
1890;-48.721;-99.872;-46.145;-74.543;-23.888;-56.879;-123.612;-120.297;-25.817;-46.677;-40.123;21.884;5.545;5.545;-2.389
1900;-49.684;-96.605;-43.16;-73.934;-26.81;-62.459;-119.221;-121.126;-23.905;-45.557;-37.823;20.006;3.972;3.972;-2.527
1910;-50.079;-92.741;-41.161;-73.68;-29.403;-68.095;-115.04;-121.037;-21.828;-44.454;-34.017;17.73;1.848;1.848;-3.022
1920;-50.233;-89.323;-38.931;-72.488;-32.448;-75.265;-110.044;-120.934;-20.11;-43.35;-31.513;16.172;0.196;0.196;-3.313
1930;-50.226;-88.716;-39.061;-72.24;-33.127;-82.359;-106.116;-121.011;-18.345;-44.658;-30.394;14.615;-0.746;-0.746;-4.352
1940;-48.703;-88.633;-38.492;-72.088;-33.943;-87.673;-102.201;-120.04;-16.579;-45.326;-29.196;13.75;-1.73;-1.73;-4.95
1950;-47.319;-86.03;-39.077;-73.083;-32.801;-92.953;-97.688;-118.499;-14.654;-45.993;-28.383;12.981;-3.417;-3.417;-6.641
1960;-46.328;-81.321;-39.214;-72.906;-32.239;-97.273;-93.16;-116.628;-12.343;-46.654;-30.59;12.211;-6.643;-6.643;-7.952
1970;-46.497;-75.572;-39.124;-73.101;-31.593;-101.952;-88.968;-114.983;-9.957;-48.477;-32.914;10.952;-11.466;-11.466;-8.367
1980;-47.126;-69.054;-37.927;-70.679;-31.819;-107.51;-85.771;-113.021;-7.571;-49.101;-34.378;9.241;-14.763;-14.763;-8.865
1990;-49.474;-62.48;-36.539;-67.953;-31.033;-113.193;-82.681;-110.472;-5.385;-49.724;-35.954;7.099;-16.087;-16.087;-10.303
2000;-51.432;-59.306;-34.164;-64.588;-30.254;-119.076;-80.396;-107.501;-2.201;-50.619;-37.491;4.902;-19.706;-19.706;-11.443
2010;-53.52;-55.974;-30.803;-61.139;-31.248;-124.69;-77.993;-105.708;0.982;-51.674;-39.378;2.457;-21.659;-21.659;-12.506
2020;-53.632;-49.761;-26.854;-59.251;-34.207;-129.623;-75.886;-104.862;4.193;-52.73;-41.52;-0.659;-24.338;-24.338;-12.964
2030;-52.637;-39.799;-22.225;-59.488;-37.124;-134.415;-74.47;-103.923;5.604;-54.232;-44.215;-4.386;-25.732;-25.732;-13.982
2040;-51.927;-29.857;-18.81;-59.608;-40.204;-138.807;-72.919;-102.983;7.229;-55.768;-47.062;-8.141;-29.835;-29.835;-14.924
2050;-50.429;-19.131;-15.395;-62.226;-41.763;-143.117;-71.876;-101.677;8.854;-57.105;-49.709;-11.655;-33.068;-33.068;-16.026
2060;-49.53;-9.586;-13.31;-64.534;-43.356;-147.154;-70.306;-100.412;9.519;-58.441;-51.814;-13.851;-34.749;-34.749;-16.737
2070;-49.55;-0.433;-10.978;-67.801;-44.957;-148.192;-68.534;-99.189;10.183;-59.778;-56.439;-15.446;-34.767;-34.767;-17.495
2080;-49.815;6.575;-8.212;-70.397;-46.81;-149.898;-67.927;-98.356;11.069;-60.994;-59.641;-16.799;-34.808;-34.808;-17.913
2090;-47.462;13.715;-4.448;-72.483;-47.222;-150.004;-66.959;-97.33;11.954;-62.225;-63.01;-17.819;-36.966;-36.966;-18.491
2100;-45.523;20.854;-0.29;-73.819;-46.801;-149.883;-65.28;-95.822;12.52;-63.462;-65.138;-18.237;-39.435;-39.435;-19.076
2110;-40.752;28.034;3.269;-74.008;-45.521;-149.761;-62.568;-94.377;12.996;-64.339;-65.673;-18.388;-41.35;-41.35;-20.083
2120;-35.85;34.688;7.063;-73.116;-45.001;-149.364;-59.703;-92.543;13.472;-64.217;-65.968;-18.149;-43.342;-43.342;-20.641
2130;-29.139;38.806;9.132;-70.466;-44.55;-149.687;-56.583;-90.172;13.948;-64.115;-65.222;-17.396;-44.583;-44.583;-21.72
2140;-24.069;42.473;12.361;-67.658;-44.946;-149.768;-53.383;-86.527;14.801;-64.026;-67.036;-17.836;-46.098;-46.098;-22.463
2150;-18.957;45.101;14.31;-63.13;-43.99;-149.33;-49.486;-83.006;15.684;-66.578;-68.85;-19.124;-46.132;-46.132;-23.999
2160;-13.926;47.735;18.524;-57.679;-43.034;-147.826;-44.299;-80.039;16.567;-67.49;-71.308;-20.706;-46.084;-46.084;-25.554
2170;-8.818;49.53;22.834;-53.428;-38.399;-144.243;-39.052;-77.372;17.69;-68.339;-72.366;-22.488;-45.956;-45.956;-26.91
2180;-2.23;51.83;31.097;-48.586;-35.422;-138.639;-31.939;-73.938;18.812;-66.909;-72.702;-24.182;-46.538;-46.538;-27.626
2190;4.474;57.388;39.386;-44.152;-31.806;-133.516;-23.605;-71.19;20.073;-65.479;-73.119;-25.785;-47.041;-47.041;-28.028
2200;10.334;62;49.101;-38.997;-32.019;-127.16;-14.937;-68.913;21.237;-64.269;-73.494;-27.341;-46.785;-46.785;-27.295
2210;16.553;65.777;58.863;-33.291;-31.422;-120.686;-6.273;-66.811;22.001;-62.499;-70.97;-28.959;-44.912;-44.912;-26.306
2220;23.524;68.513;66.786;-27.705;-31.502;-114.382;0.182;-64.509;22.876;-59.263;-68.445;-29.632;-43.474;-43.474;-25.557
2230;30.535;68.392;73.601;-22.105;-30.299;-107.748;6.963;-61.426;23.75;-56.028;-66.08;-28.279;-42.037;-42.037;-24.781
2240;37.855;68.27;78.297;-16.185;-30.117;-103.077;13.837;-58.022;24.625;-53.13;-63.194;-26.891;-39.647;-39.647;-23.601
2250;44.375;66.436;82.059;-11.354;-29.742;-97.768;22.608;-55.708;24.619;-50.152;-60.419;-25.517;-36.179;-36.179;-22.435
2260;51.081;64.601;84.535;-4.39;-28.314;-93.523;28.6;-52.513;24.614;-47.029;-56.914;-24.643;-32.712;-32.712;-21.418
2270;56.77;60.968;86.561;2.859;-25.434;-89.068;35.172;-49.132;24.208;-44.113;-53.63;-23.008;-28.588;-28.588;-20.45
2280;61.545;57.852;88.206;12.406;-22.754;-83.532;42.316;-46.31;24.643;-40.757;-48.996;-21.306;-24.905;-24.905;-19.281
2290;66.066;54.695;90.662;20.468;-19.328;-75.636;50.258;-43.495;25.077;-37.401;-44.361;-20.599;-21.222;-21.222;-18.106
2300;70.083;52.441;92.67;30.334;-16.978;-67.979;58.019;-41.448;25.401;-34.957;-39.954;-19.979;-18.313;-18.313;-16.326
2310;74.36;51.368;91.757;39.501;-15.028;-59.288;64.123;-39.605;25.726;-32.748;-36.954;-20.32;-15.888;-15.888;-14.607
2320;79.557;49.455;90.61;48.906;-13.855;-51.374;69.279;-37.161;25.994;-30.538;-33.651;-19.643;-13.463;-13.463;-13.36
2330;85.953;50.12;89.068;58.92;-12.434;-42.761;74.385;-33.068;25.359;-27.648;-31.992;-21.326;-10.8;-10.8;-12.127
2340;90.091;50.079;87.526;67.899;-12.452;-34.981;80.006;-29.079;24.723;-24.625;-30.332;-23.259;-7.63;-7.63;-11.635
2350;95.223;50.179;85.608;77.246;-12.848;-25.888;85.566;-24.64;24.087;-21.567;-28.652;-24.593;-4.399;-4.399;-11.087
2360;98.221;49.011;83.691;85.23;-12.596;-16.982;90.099;-19.608;23.451;-18.509;-27.223;-25.465;-2.48;-2.48;-10.109
2370;101.246;47.043;81.35;93.015;-10.241;-8.53;94.295;-15.061;22.663;-16.596;-26.077;-27.112;-0.274;-0.274;-9.131
2380;103.29;44.992;77.913;99.463;-7.887;0.095;99.139;-10.619;21.641;-13.323;-24.863;-28.657;2.16;2.16;-7.179
2390;105.84;44.621;73.116;106.792;-4.007;7.668;103.69;-6.703;20.339;-10.084;-24.043;-29.881;5.019;5.019;-5.033
2400;109.083;44.112;67.87;111.91;-1.836;14.916;107.546;-3.634;18.877;-6.846;-23.222;-31.422;7.56;7.56;-2.185
2410;111.899;46.323;63.425;117.563;0.135;22.585;110.199;-0.777;17.263;-5.178;-22.555;-32.901;10.452;10.452;0.223
