timepoints (min);46: wc-2-.1;47: wc-2-.2;48: wc-2-.3
710;-244.815;-85.612;-161.072
720;-238.359;-74.197;-152.33
730;-232.893;-65.933;-142.227
740;-220.852;-59.234;-133.539
750;-210.332;-53.422;-126.013
760;-201.974;-49.278;-122.004
770;-194.655;-45.594;-119.051
780;-184.862;-44.8;-116.537
790;-176.136;-43.732;-114.395
800;-168.13;-42.755;-110.588
810;-160.92;-39.075;-107.23
820;-154.405;-34.554;-104.262
830;-148.136;-28.965;-101.513
840;-131.91;-14.029;-88.841
850;-115.248;0.879;-76.137
860;-98.563;13.84;-64.364
870;-81.856;20.172;-52.178
880;-65.927;26.476;-46.573
890;-58.657;38.191;-40.949
900;-51.649;48.482;-34.667
910;-44.616;57.077;-31.849
920;-37.558;61.802;-29.016
930;-30.196;66.503;-23.808
940;-24.05;73.102;-18.691
950;-18.46;77.865;-15.758
960;-12.836;82.622;-12.69
970;-7.179;84.734;-9.658
980;-1.21;88.18;-8.25
990;0.634;86.776;-6.827
1000;2.496;86.089;-7.428
1010;4.377;85.381;-6.172
1020;6.755;84.652;-4.9
1030;6.47;85.131;-6.853
1040;6.429;85.605;-8.744
1050;6.4;85.714;-12.461
1060;6.382;83.86;-16.165
1070;7.895;82.829;-19.43
1080;9.06;80.787;-22.8
1090;10.001;78.724;-26.154
1100;10.957;78.199;-27.814
1110;11.927;79.574;-28.251
1120;13.671;80.929;-28.678
1130;16.228;82.984;-27.776
1140;18.41;79.779;-26.407
1150;20.612;75.193;-25.558
1160;22.833;72.036;-24.707
1170;24.113;68.862;-23.04
1180;25.013;64.232;-23.728
1190;25.934;57.384;-24.413
1200;26.873;51.126;-24.293
1210;26.591;44.857;-24.469
1220;26.326;41.371;-24.638
1230;25.976;37.392;-24.24
1240;25.64;38.55;-23.463
1250;25.318;39.691;-20.765
1260;24.09;38.976;-18.068
1270;22.395;38.229;-14.275
1280;20.829;36.826;-7.246
1290;19.274;35.195;-0.222
1300;17.73;33.911;6.679
1310;18.116;31.216;13.981
1320;16.993;27.798;20.674
1330;16.169;24.366;27.477
1340;15.35;23.002;34.241
1350;14.537;19.752;39.316
1360;16.53;19.894;44.383
1370;18.019;19.907;50.326
1380;19.51;19.194;54.951
1390;21.052;17.277;59.579
1400;21.955;16.791;64.57
1410;22.726;16.3;69.562
1420;24.46;11.963;73.557
1430;26.023;8.977;77.189
1440;24.454;4.331;77.087
1450;21.505;-0.914;76.185
1460;19.796;-6.208;75.283
1470;18.287;-10.897;73.021
1480;16.778;-14.815;71.592
1490;16.972;-18.734;70.163
1500;18.207;-20.734;68.294
1510;20.417;-20.473;67.025
1520;22.626;-21.075;64.956
1530;24.788;-21.036;62.77
1540;27.618;-21.342;60.983
1550;32.688;-18.469;59.697
1560;36.059;-14.196;58.41
1570;39.43;-10.399;57.323
1580;42.505;-7.828;56.143
1590;44.113;-7.412;54.964
1600;45.439;-9.498;54.265
1610;43.964;-14.983;53.248
1620;42.476;-20.09;50.592
1630;41.45;-22.301;48.108
1640;39.312;-23.312;45.423
1650;37.814;-23.992;42.697
1660;36.012;-26.83;39.97
1670;34.211;-25.774;38.003
1680;30.879;-26.083;35.96
1690;28.586;-26.232;35.117
1700;27.797;-26.415;34.275
1710;27.008;-26.93;32.146
1720;27.081;-26.884;31.378
1730;27.272;-26.728;30.348
1740;29.262;-26.555;27.197
1750;30.219;-28.141;24.577
1760;31.177;-28.854;21.956
1770;32.044;-27.967;20.215
1780;33.52;-26.956;19.75
1790;34.658;-24.254;18.886
1800;33.556;-24.552;18.021
1810;32.095;-24.884;18.057
1820;30.634;-26.432;17.892
1830;27.977;-26.939;17.349
1840;27.599;-30.497;14.926
1850;26.883;-31.574;11.691
1860;26.167;-32.651;8.457
1870;26.589;-33.469;3.702
1880;26.411;-37.527;-2.197
1890;26.869;-40.099;-7.897
1900;27.465;-42.734;-13.596
1910;28.061;-42.768;-21.455
1920;28.995;-43.455;-29.971
1930;28.368;-42.542;-38.204
1940;25.909;-41.629;-46.277
1950;23.45;-38.334;-54.061
1960;21.225;-35.039;-60.724
1970;17.731;-31.063;-63.188
1980;14.603;-26.999;-65.555
1990;9.394;-22.014;-65.801
2000;4.8;-17.848;-66.048
2010;0.966;-14.763;-66.295
2020;-2.862;-11.677;-67.25
2030;-6.25;-8.394;-65.843
2040;-9.734;-6.472;-64.436
2050;-13.338;-4.445;-62.891
2060;-17.639;-2.16;-62.226
2070;-23.099;0.886;-61.561
2080;-28.142;1.982;-62.383
2090;-34.137;4.639;-61.326
2100;-40.131;7.295;-60.268
2110;-46.018;7.257;-59.21
2120;-51.905;7.138;-56.494
2130;-56.808;6.909;-53.098
2140;-64.352;7.608;-49.874
2150;-72.095;8.308;-46.672
2160;-80.788;8.766;-41.309
2170;-89.252;12.594;-35.946
2180;-94.437;16.423;-29.083
2190;-99.284;20.899;-22.669
2200;-102.491;23.655;-16.255
2210;-105.684;26.997;-9.841
2220;-107.397;27.432;-7.345
2230;-109.283;27.866;-5.848
2240;-110.008;28.094;-4.69
2250;-110.348;26.883;-3.469
2260;-110.073;25.672;-2.248
2270;-109.799;23.479;-1.028
2280;-101.939;20.799;-1.367
2290;-94.08;18.091;-1.975
2300;-86.694;15.804;-2.583
2310;-79.308;13.237;-3.192
2320;-75.141;10.574;-4.034
2330;-72.454;8.578;-1.877
2340;-69.132;6.582;0.611
2350;-65.672;4.89;3.023
2360;-61.808;4.799;5.436
2370;-57.425;4.432;7.848
2380;-52.852;3.076;4.541
2390;-43.68;-0.28;1.378
2400;-33.949;-3.119;-1.785
2410;-20.858;-5.985;-4.948
2420;-7.732;-11.611;-8.076
2430;5.586;-17.417;-10.484
2440;18.512;-19.145;-13.41
2450;31.24;-21.301;-16.252
2460;43.968;-23.457;-19.095
2470;49.979;-24.632;-21.938
2480;55.99;-25.248;-20.381
2490;63.063;-28.13;-19.148
2500;69.337;-29.091;-17.914
2510;74.415;-30.501;-16.681
2520;79.054;-30.869;-15.317
2530;74.535;-31.513;-16.153
2540;74.796;-32.157;-16.313
2550;75.643;-35.792;-16.473
2560;75.13;-39.426;-16.826
2570;79.754;-43.061;-17.179
2580;83.739;-45.793;-18.292
2590;88.069;-48.684;-19.295
2600;88.879;-50.28;-20.298
2610;89.585;-51.21;-21.301
2620;88.854;-52.139;-22.152
2630;88.219;-52.246;-19.363
2640;86.509;-52.117;-16.629
2650;84.799;-51.989;-13.895
2660;83.222;-51.899;-11.01
2670;81.646;-51.941;-8.124
2680;80.36;-50.902;-6.839
2690;77.634;-53.526;-6.139
2700;73.045;-56.149;-5.44
2710;65.057;-59.084;-4.741
2720;62.988;-60.966;-4.303
2730;60.215;-62.847;-7.266
2740;55.397;-63.143;-9.132
2750;52.539;-63.44;-10.999
2760;49.557;-63.737;-13.237
2770;45.695;-64.734;-15.476
2780;41.302;-65.731;-16.074
2790;29.308;-65.683;-14.945
2800;17.313;-63.058;-13.815
2810;9.399;-60.433;-12.686
2820;1.243;-57.531;-10.832
2830;-3.793;-54.829;-9.738
2840;-8.788;-52.003;-6.719
2850;-13.102;-50.332;-3.699
2860;-15.046;-48.662;-0.68
2870;-15.989;-46.992;2.339
2880;-12.96;-45.668;7.331
2890;-10.291;-44.343;12.683
2900;-9.083;-44.299;18.034
2910;-10.674;-44.327;23.386
2920;-16.066;-44.354;28.738
2930;-24.138;-43.757;32.848
2940;-27.572;-43.16;35.039
2950;-31.007;-42.563;37.229
2960;-31.577;-39.946;39.419
2970;-32.146;-37.081;41.568
2980;-34.774;-32.657;43.834
2990;-37.857;-27.607;44.661
3000;-43.099;-22.557;45.487
3010;-48.563;-16.188;46.313
3020;-52.906;-9.514;46.994
3030;-56.332;-2.841;47.931
3040;-57.799;-1.132;50.188
3050;-55.982;0.577;52.444
3060;-56.885;1.941;54.783
3070;-54.775;3.806;57.123
3080;-53.741;5.67;59.29
3090;-53.875;8.375;61.177
3100;-51.128;11.486;63.063
3110;-53.599;14.596;65.33
3120;-56.069;17.411;67.596
3130;-60.074;20.186;69.959
3140;-64.08;22.961;68.041
3150;-66.669;29.77;66.207
3160;-69.258;36.578;64.372
3170;-69.164;43.386;62.538
3180;-69.326;47.564;60.966
3190;-72.967;51.556;58.553
3200;-76.615;52.908;55.934
3210;-79.183;52.097;53.315
3220;-82.625;51.285;50.695
3230;-83.346;49.35;47.207
3240;-85.61;47.67;44.568
3250;-86.873;45.99;41.93
3260;-84.378;42.785;39.291
3270;-82.276;39.579;36.652
3280;-80.328;36.222;34.393
3290;-78.381;35.32;30.909
3300;-79.655;34.418;27.425
3310;-81.012;33.236;23.941
3320;-85.265;30.835;20.457
3330;-89.517;28.447;17.014
3340;-91.166;27.454;11.331
3350;-92.952;26.461;5.648
3360;-90.552;25.468;-0.034
3370;-88.228;26.702;-5.717
3380;-83.903;27.937;-12.69
3390;-72.746;28.211;-15.862
3400;-61.669;25.132;-19.034
3410;-51.095;22.44;-22.207
3420;-39.721;19.748;-25.138
3430;-28.713;17.45;-27.938
3440;-18.025;14.432;-27.778
3450;-7.95;14.199;-27.618
3460;1.497;14.379;-27.458
3470;11.251;14.56;-26.436
3480;21.006;15.775;-26.855
3490;31.577;16.99;-27.594
3500;42.437;18.116;-28.334
3510;50.381;19.502;-29.032
3520;58.324;20.888;-29.73
3530;66.05;23.421;-28.084
3540;72.807;28.313;-27.959
3550;80.172;32.819;-27.833
3560;86.952;37.543;-27.625
3570;92.571;40.828;-27.177
3580;98.007;44.112;-26.728
3590;102.483;44.741;-25.548
3600;107.207;45.37;-23.884
3610;111.211;45.999;-22.221
3620;114.988;43.617;-19.717
3630;120.604;41.234;-17.214
3640;119.843;40.316;-14.301
3650;119.095;39.397;-11.146
3660;118.817;40.479;-8.472
3670;118.538;41.588;-5.797
3680;118.872;42.848;-3.123
3690;119.505;44.829;-0.731
3700;119.641;43.888;1.661
3710;120.164;42.948;1.852
3720;120.687;41.531;2.044
3730;115.185;38.561;3.436
3740;110.153;35.592;4.966
3750;104.873;33.801;6.015
3760;99.593;32.011;7.065
3770;89.372;29.317;8.115
3780;79.152;26.036;6.221
3790;69.665;23.835;3.996
3800;60.178;21.633;2.971
3810;50.608;19.935;1.946
3820;43.839;19.677;0.681
3830;36.859;19.688;-1.025
3840;29.88;18.219;-3.327
3850;22.728;16.75;-5.629
3860;15.577;15.674;-7.931
3870;11.83;15.919;-11.646
3880;5.228;17.043;-15.36
3890;-1.375;17.45;-20.037
3900;-7.461;17.87;-24.714
3910;-13.066;16.291;-28.912
3920;-18.154;14.891;-33.095
3930;-24.007;13.411;-34.119
3940;-30.087;12.076;-34.852
3950;-36.167;13.421;-35.586
3960;-43.892;14.766;-33.679
3970;-51.618;15.429;-31.771
3980;-52.719;16.092;-24.023
3990;-53.819;16.28;-16.952
4000;-54.906;15.578;-9.4
4010;-54.433;12.636;-2.862
4020;-49.674;9.694;2.276
4030;-44.916;6.214;7.414
4040;-40.192;1.654;12.076
4050;-35.468;-3.361;14.628
4060;-30.48;-10.777;17.179
4070;-28.982;-18.192;14.731
4080;-27.484;-25.876;12.283
4090;-26.31;-32.08;10.41
4100;-26.817;-37.764;8.454
4110;-26.737;-43.49;6.258
4120;-29.062;-49.312;4.062
4130;-31.27;-56.014;1.866
4140;-33.479;-63.123;1.226
4150;-36.063;-67.992;0.586
4160;-39.128;-72.909;-0.534
4170;-41.248;-77.012;-1.654
4180;-43.368;-81.036;-5.934
4190;-45.323;-84.571;-9.828
4200;-47.557;-88.106;-16.521
4210;-48.622;-91.462;-23.215
4220;-49.687;-93.874;-29.909
4230;-50.49;-96.287;-41.836
4240;-50.251;-100.905;-53.783
4250;-50.092;-105.523;-67.131
4260;-51.887;-107.97;-80.479
4270;-53.681;-110.417;-92.426
4280;-55.476;-113.743;-104.877
4290;-56.08;-117.194;-114.854
4300;-56.684;-120.742;-124.83
4310;-58.386;-121.89;-134.807
4320;-60.088;-120.277;-137.763
4330;-61.79;-118.396;-140.926
4340;-59.692;-116.577;-144.528
4350;-55.914;-115.277;-148.131
4360;-52.116;-113.978;-151.494
4370;-48.317;-107.439;-154.546
4380;-44.519;-100.734;-153.132
4390;-37.644;-93.719;-151.719
4400;-29.703;-88.943;-150.305
4410;-21.763;-85.008;-147.714
4420;-13.822;-81.321;-145.083
4430;-6.935;-77.414;-139.891
4440;-0.048;-73.546;-134.699
4450;6.332;-69.679;-126.708
4460;12.713;-66.771;-118.93
4470;19.094;-64.091;-107.687
4480;24.334;-61.908;-96.444
4490;29.574;-57.684;-85.201
4500;34.901;-53.541;-72.283
4510;40.228;-49.052;-59.447
4520;45.555;-44.819;-46.691
4530;52.837;-39.706;-33.935
4540;60.068;-34.593;-23.619
4550;67.298;-28.817;-13.876
4560;74.528;-23.04;-7.072
4570;81.759;-19.803;-0.268
4580;87.677;-16.566;6.537
4590;89.217;-10.568;12.96
4600;90.756;-4.33;19.301
4610;92.295;2.116;31.521
4620;92.49;3.321;43.742
4630;92.684;7.287;51.883
4640;89.382;11.439;60.127
4650;86.08;15.977;73.858
4660;82.778;21.354;87.589
4670;83.479;26.732;101.32
4680;85.219;34.23;113.036
4690;87.953;41.473;124.662
4700;90.687;48.157;136.768
4710;93.421;55.801;148.874
4720;90.748;64.005;157.661
4730;90.029;72.361;166.709
4740;89.31;80.993;176.582
4750;88.592;89.705;186.455
4760;87.956;98.417;196.328
4770;83;102.408;206.295
4780;75.302;106.386;216.807
4790;67.604;110.102;224.519
4800;59.906;112.658;232.23
4810;52.222;114.174;242.502
4820;44.538;115.579;252.546
4830;37.103;117.53;260.077
4840;29.669;116.72;267.608
4850;22.234;115.91;275.139
4860;17.349;115.115;276.487
4870;13.063;114.319;277.593
4880;9.309;109.825;281.619
4890;5.554;105.331;285.646
4900;1.8;101.397;284.392
4910;3.513;97.05;283.317
4920;2.051;93.419;269.661
4930;0.589;87.669;256.004
4940;-0.873;82.279;242.348
4950;-2.625;76.978;228.135
4960;-4.497;71.712;213.881
4970;-0.051;65.885;197.828
4980;4.394;60.059;181.774
4990;8.84;52.433;164.64
5000;8.677;45.193;147.486
5010;8.514;37.76;126.208
5020;12.444;35.047;104.931
5030;16.374;31.054;83.654
5040;20.303;27.068;65.577
5050;28.745;22.53;47.017
5060;37.483;19.032;29.697
5070;46.221;15.534;12.377
5080;54.959;14.916;-1.423
5090;63.697;13.946;-15.396
5100;72.381;12.673;-31.21
5110;78.254;11;-47.023
5120;84.127;10.807;-62.837
5130;90;10.462;-82.585
5140;88.974;10.6;-101.912
5150;87.948;10.178;-117.919
5160;81.481;9.756;-133.926
5170;75.015;8.53;-138.212
5180;68.549;7.303;-142.582
5190;64.972;5.855;-142.268
5200;61.396;4.407;-141.953
5210;58.25;1.759;-141.639
5220;55.103;0.014;-138.621
5230;51.957;-1.883;-134.899
5240;51.083;-1.979;-131.778
5250;54.672;-4.316;-128.657
5260;58.261;-6.797;-121.495
5270;61.85;-9.244;-114.81
5280;65.259;-10.411;-110.843
5290;62.909;-11.578;-106.876
5300;56.054;-9.505;-102.909
5310;49.199;-7.597;-99.961
5320;42.343;-5.614;-96.441
5330;33.832;-6.51;-94.441
5340;25.32;-9.007;-92.441
5350;17.048;-11.517;-88.841
5360;8.777;-13.49;-85.69
5370;0.505;-16.942;-82.632
5380;-2.443;-20.395;-79.574
5390;1.73;-22.327;-76.516
5400;5.943;-24.059;-78.212
5410;10.157;-25.268;-80.35
5420;14.371;-25.196;-81.168
5430;18.037;-28.284;-81.986
5440;19.428;-30.897;-87.564
5450;20.818;-34.295;-93.19
5460;22.208;-36.494;-96.043
5470;23.495;-38.692;-98.895
5480;21.702;-34.975;-101.748
5490;18.189;-31.258;-103.641
5500;14.676;-25.666;-104.625
5510;11.163;-20.074;-106.648
5520;6.257;-18.643;-108.672
5530;1.35;-16.846;-107.535
5540;2.363;-15.2;-107.068
5550;3.375;-16.794;-106.077
5560;4.388;-18.589;-105.087
5570;2.526;-20.287;-104.097
5580;2.251;-21.081;-100.435
5590;1.977;-20.276;-96.586
5600;1.702;-19.47;-92.618
5610;1.428;-17.545;-88.65
5620;1.728;-16.433;-84.601
5630;-3.274;-15.301;-80.553
5640;-8.277;-15.688;-79.308
5650;-13.28;-12.876;-77.283
5660;-21.128;-10.243;-75.258
5670;-29.349;-7.61;-74.553
5680;-37.05;-1.975;-74.455
5690;-44.75;3.659;-73.357
5700;-52.451;11.054;-72.259
5710;-56.679;18.517;-72.177
5720;-61.023;26.284;-72.094
5730;-62.288;28.611;-65.628
5740;-63.553;28.138;-59.161
5750;-64.818;27.761;-52.695
5760;-65.117;27.385;-45.189
5770;-63.417;31.61;-39.703
5780;-61.716;35.834;-33.435
5790;-60.015;39.321;-27.165
5800;-58.314;42.808;-21.337
5810;-58.324;46.495;-15.508
5820;-56.494;50.065;-15.229
5830;-54.663;54.515;-14.95
5840;-52.833;58.654;-14.823
5850;-51.139;62.793;-14.817
5860;-49.445;65.812;-15.506
5870;-49.072;68.211;-13.436
5880;-48.698;70.389;-11.365
5890;-48.414;72.567;-6.975
5900;-47.663;71.545;-2.406
5910;-44.033;70.606;1.098
5920;-40.403;69.226;4.601
5930;-36.772;68.343;8.105
5940;-33.404;67.461;10.608
5950;-31.203;64.818;12.836
5960;-32.081;59.648;17.663
5970;-32.96;54.734;23.029
5980;-33.783;49.819;22.514
5990;-35.834;47.705;22
6000;-38.126;45.59;30.378
6010;-40.417;40.319;38.756
6020;-42.708;34.826;47.134
6030;-45.088;29.334;55.177
6040;-46.65;24.641;64.04
6050;-48.211;24.847;73.183
6060;-47.972;24.846;82.327
6070;-47.803;24.844;96.71
6080;-47.633;23.963;111.094
6090;-47.167;23.081;122.846
6100;-47.261;24.051;134.597
6110;-47.382;25.021;146.349
6120;-47.503;26.19;155.341
6130;-47.625;27.36;163.788
6140;-49.659;29.41;176.115
6150;-51.374;31.763;188.441
6160;-53.088;34.116;201.959
6170;-54.803;36.909;215.476
6180;-58.072;34.462;222.051
6190;-61.341;31.505;228.626
6200;-63.415;28.548;235.201
6210;-65.49;28.71;239.177
6220;-67.564;28.873;243.49
6230;-67.017;28.916;247.803
6240;-66.469;28.959;252.116
6250;-65.612;29.001;243.589
6260;-64.756;32.084;235.062
6270;-61.739;35.167;226.763
6280;-58.812;38.625;218.27
6290;-56.312;42.186;209.778
6300;-53.811;41.188;201.005
6310;-51.31;40.189;188.217
6320;-48.13;37.43;175.428
6330;-45.48;35.817;162.639
6340;-42.92;34.203;151.93
6350;-40.36;30.469;140.841
6360;-37.96;26.735;129.574
6370;-35.905;19.724;118.306
6380;-33.843;12.589;105.279
6390;-30.861;4.574;88.371
6400;-27.879;-3.441;71.539
6410;-25.537;-11.491;54.632
6420;-23.601;-18.861;37.724
6430;-20.346;-20.859;27.497
6440;-17.091;-22.858;18.149
6450;-14.356;-24.857;8.822
6460;-11.621;-26.662;-0.505
6470;-8.844;-26.793;-10.066
6480;-7.828;-26.804;-19.628
6490;-6.291;-26.815;-29.589
6500;-4.754;-26.274;-36.07
6510;-3.659;-26.214;-42.552
6520;-4.724;-25.781;-49.033
6530;-5.789;-26.268;-55.514
6540;-5.334;-26.754;-61.982
6550;-4.879;-26.938;-68.45
6560;-3.582;-30.561;-70.597
6570;-2.966;-32.349;-75.865
6580;-2.669;-34.137;-80.119
6590;-2.372;-36.407;-84.372
6600;-1.986;-38.677;-88.516
6610;-1.44;-40.571;-92.659
6620;-0.894;-39.905;-96.803
6630;0.172;-39.239;-99.943
6640;0.963;-38.71;-103.084
6650;1.753;-40.142;-106.225
6660;2.873;-41.912;-109.366
6670;4.393;-44.361;-113.258
6680;5.913;-46.659;-117.15
6690;6.785;-48.957;-119.323
6700;8.273;-51.935;-121.495
6710;9.921;-55.851;-123.668
6720;11.57;-62.241;-125.364
6730;12.859;-68.632;-127.212
6740;13.629;-75.022;-129.061
6750;14.343;-80.112;-129.869
6760;15.058;-84.721;-130.378
6770;15.772;-89.407;-130.887
6780;17.156;-94.092;-131.396
6790;17.019;-97.418;-132.305
6800;16.483;-100.35;-133.214
6810;15.946;-100.381;-133.674
6820;15.451;-100.411;-133.055
6830;15.276;-100.441;-132.436
6840;15.101;-98.952;-131.817
6850;14.484;-96.993;-129.763
6860;13.868;-96.239;-127.723
6870;13.154;-95.484;-125.683
6880;11.921;-94.73;-121.683
6890;10.684;-95.306;-117.683
6900;9.447;-93.137;-113.634
6910;8.513;-90.967;-109.586
6920;7.179;-88.797;-105.297
6930;5.846;-87.828;-101.007
6940;5.032;-87.451;-99.676
6950;4.508;-86.029;-96.145
6960;3.823;-84.607;-92.614
6970;3.139;-83.185;-89.083
6980;2.415;-81.043;-85.766
6990;1.532;-78.301;-81.779
7000;0.719;-77.039;-77.793
7010;-0.095;-75.777;-73.887
7020;-0.389;-74.514;-69.981
7030;-0.91;-74.185;-67.226
7040;-1.294;-75.215;-64.472
7050;-1.477;-76.246;-62.048
7060;-1.661;-77.276;-59.625
7070;-0.764;-73.866;-53.801
7080;0.436;-69.995;-47.978
7090;1.057;-67.643;-42.154
7100;2.077;-65.291;-37.11
7110;2.778;-62.939;-31.894
7120;3.851;-62.748;-26.677
7130;5.179;-62.425;-22.581
7140;6.588;-61.502;-17.564
7150;7.996;-60.579;-12.548
7160;7.604;-59.657;-8.276
7170;7.13;-60.029;-4.073
7180;6.655;-59.201;0.13
7190;5.661;-58.374;4.332
7200;4.146;-57.546;5.695
7210;2.625;-54.959;7.058
7220;1.103;-52.812;8.062
7230;-0.378;-51.945;8.763
7240;0.292;-51.077;9.463
7250;0.963;-50.21;10.164
7260;1.523;-47.382;10.425
7270;1.563;-44.437;10.033
7280;1.589;-40.732;9.641
7290;5.375;-37.021;9.401
7300;9.072;-33.309;9.161
7310;12.417;-24.157;8.921
7320;14.681;-19.025;7.087
7330;19.026;-13.892;6.132
7340;23.461;-8.76;5.178
7350;28.04;-1.601;4.044
7360;32.939;5.474;2.91
7370;37.839;14.71;-0.01
7380;39.086;23.946;-2.93
7390;40.594;33.182;-4.45
7400;42.103;40.138;-5.97
7410;45.412;47.459;-7.49
7420;48.399;55.221;-9.899
7430;51.33;62.982;-12.309
7440;54.261;70.743;-14.719
7450;57.912;75.785;-16.488
7460;61.563;79.183;-18.178
7470;65.774;82.23;-17.971
7480;70.074;85.277;-17.909
7490;73.223;92.564;-17.847
7500;76.372;99.513;-17.785
7510;77.761;104.502;-17.723
7520;79.012;109.491;-18.539
7530;80.263;113.666;-19.356
7540;77.754;121.281;-19.724
7550;73.566;128.779;-20.092
7560;68.956;130.837;-20.461
7570;64.346;132.895;-19.574
7580;57.657;134.953;-18.327
7590;51.498;133.652;-17.08
7600;44.939;131.567;-15.833
7610;38.381;129.481;-14.497
7620;31.822;127.396;-13.843
7630;29.454;121.07;-13.189
7640;26.286;114.283;-14.855
7650;23.083;109.775;-14.601
7660;19.177;105.268;-15.713
7670;15.51;100.76;-17.177
7680;11.844;93.452;-18.64
7690;11.538;86.407;-20.103
7700;11.487;83.212;-21.567
7710;11.436;80.018;-22.952
7720;10.825;76.823;-24.337
7730;8.727;73.789;-25.528
7740;6.615;66.411;-26.72
7750;4.503;59.033;-27.912
7760;4.152;51.345;-28.655
7770;4.87;46.857;-27.599
7780;5.589;42.161;-26.542
7790;6.397;34.026;-25.485
7800;8.934;25.891;-24.05
7810;11.35;17.756;-22.828
7820;13.767;10.414;-19.526
7830;16.177;6.436;-17.463
7840;15.4;5.058;-15.401
7850;15.023;3.68;-13.339
7860;14.647;2.302;-10.332
7870;14.339;0.924;-8.646
7880;14.112;4.007;-6.959
7890;14.684;7.05;-5.272
7900;15.257;10.092;-5.505
7910;17.71;13.135;-5.421
7920;20.35;16.943;-3.742
7930;22.99;23.552;-2.063
7940;22.112;30.174;-0.385
7950;20.393;31.076;1.294
7960;18.619;31.978;3.772
7970;16.846;32.508;16.611
7980;15.225;32.877;29.45
7990;13.604;33.247;42.447
8000;11.983;33.892;55.444
8010;10.066;28.978;68.366
8020;7.469;20.788;82.927
8030;4.872;12.597;97.488
8040;2.274;4.407;112.05
8050;-1.621;-3.783;126.501
8060;-5.396;-11.726;140.317
8070;-9.171;-17.628;141.054
8080;-13.001;-26.77;141.79
