timepoints (min);30: frq9-.1;31: frq9-.2;32: frq9-.3;33: frq10-.1;34: frq10-.2;35: frq10-.3;36: wc-1+.1;37: wc-1+.2;38: wc-1+.3;39: wc-2+.1;40: wc-2+.2;;41: wc-1-.1;42: wc-1-.3
1080;-211.399;-225.46;-231.344;-93.592;-68.006;-178.23;-90.921;-32.25;-43.412;-206.883;-70.462;;-109.279;-93.543
1090;-200.969;-209.434;-227.915;-85.876;-51.442;-171.587;-85.979;-32.156;-43.465;-200.867;-65.996;;-105.224;-91.896
1100;-196.453;-188.453;-223.64;-78.827;-41.813;-161.64;-80.84;-31.493;-42.893;-192.907;-66.16;;-100.987;-90.44
1110;-193.313;-174.678;-220.092;-72.691;-36.003;-151.954;-74.579;-31.408;-42.102;-186.171;-65.464;;-97.632;-86.477
1120;-186.164;-162.584;-215.897;-67.488;-29.734;-146.848;-69.125;-31.587;-41.134;-180.385;-64.141;;-94.759;-83.063
1130;-177.727;-155.239;-210.299;-66.594;-21.996;-144.252;-65.038;-31.607;-40.274;-175.192;-63.338;;-92.752;-78.248
1140;-171.037;-141.508;-205.027;-53.564;-16.746;-141.037;-62.338;-31.704;-40.085;-170.299;-63.122;;-91.44;-74.882
1150;-166.575;-124.563;-198.188;-36.05;-14.225;-138.188;-60.2;-31.875;-41.313;-166;-63.15;;-90.875;-71.912
1160;-157.213;-108.476;-189.258;-29.492;-12.845;-133.974;-57.702;-32.399;-43.714;-162.187;-62.762;;-91.801;-69.277
1170;-144.426;-97.804;-180.988;-26.795;-14.488;-127.959;-55.292;-33.144;-45.478;-159.288;-62.265;;-94.569;-67.594
1180;-132.865;-91.52;-173.476;-24.265;-16.426;-121.126;-53.627;-33.96;-46.793;-156.605;-62.464;;-95.013;-66.057
1190;-123.976;-85.97;-167.667;-18.679;-15.952;-114.494;-52.536;-35.363;-47.524;-154.185;-62.792;;-95.917;-64.589
1200;-117.04;-80.313;-161.273;-17.859;-12.228;-109.499;-50.612;-36.675;-49.002;-152.431;-61.765;;-97.567;-63.259
1210;-98.01;-59.099;-144.286;-9.2;6.692;-97.473;-37.723;-29.893;-48.879;-144.167;-47.883;;-90.914;-56.267
1220;-76.834;-38.057;-126.207;-1.735;26.538;-85.706;-30.083;-22.754;-48.093;-136.162;-40.604;;-83.531;-48.837
1230;-59.628;-19.785;-108.296;4.699;45.422;-73.197;-24.225;-19.562;-47.637;-127.338;-35.771;;-76.747;-44.758
1240;-47.637;-5.574;-95.791;10.333;57.404;-57.795;-17.943;-18.912;-46.993;-116.747;-30.602;;-74.184;-41.577
1250;-36;5.72;-83.296;14.844;63.756;-43.544;-13.658;-20.362;-46.491;-106.136;-28.673;;-73.182;-38.113
1260;-32.627;19.239;-68.633;18.767;70.838;-32.115;-10.157;-22.079;-46.154;-97.481;-27.922;;-72.536;-35.956
1270;-29.957;29.488;-55.964;20.533;73.08;-21.488;-5.572;-25.22;-46.065;-91.731;-27.403;;-67.906;-34.217
1280;-28;38.658;-44.474;20.351;74.603;-11.971;-2.642;-29.056;-47.562;-85.955;-27.225;;-65.308;-32.55
1290;-22.076;45.24;-33.015;20.904;74.317;-2.11;0.755;-31.97;-48.846;-80.915;-27.96;;-65.676;-30.343
1300;-14.446;52.627;-23.069;20.282;71.465;3.387;3.966;-33.777;-49.061;-76.013;-29.28;;-70.947;-28.086
1310;-8.676;59.537;-13.34;18.59;63.4;7.353;6.394;-35.877;-48.036;-71.095;-30.475;;-75.873;-25.234
1320;-3.094;66.577;-3.631;17.104;48.947;14.399;7.906;-37.668;-47.297;-65.532;-29.993;;-81.624;-23.365
1330;-6.024;73.298;8.12;15.292;36.574;21.879;8.897;-38.85;-48.535;-60.288;-29.588;;-83.974;-21.114
1340;-6.619;75.677;16.972;14.992;23.821;30.234;9.854;-39.73;-49.188;-55.027;-29.662;;-84.329;-18.562
1350;-4.37;74.87;24.82;16.31;13.5;34.26;9.84;-41.46;-50.06;-51.18;-27.92;;-84.39;-16.64
1360;-3.132;77.62;32.661;17.862;6.806;35.664;8.196;-42.014;-49.474;-46.741;-26.62;;-84.201;-16.447
1370;-6.862;77.884;43.331;18.895;-0.013;39.106;7.053;-41.363;-51.276;-42.292;-25.576;;-85.192;-16.597
1380;-12.151;79.68;49.712;22.811;-9.395;46.3;6.62;-40.665;-53.233;-37.425;-24.092;;-87.146;-17.115
1390;-18.173;75.89;56.107;17.957;-17.473;52.725;6.334;-40.775;-53.285;-33.343;-22.177;;-89.52;-17.26
1400;-23.552;68.143;75.661;8.731;-22.766;60.783;5.476;-41.71;-52.61;-30.019;-20.535;;-90.931;-17.185
1410;-31.975;59.054;78.282;6.994;-28.199;67.62;4.795;-42.523;-50.291;-26.541;-19.608;;-91.32;-17.925
1420;-44.235;50.616;80.345;7.124;-31.316;71.677;4.366;-41.799;-48.911;-22.92;-19.04;;-90.012;-18.461
1430;-53.926;44.423;82.429;7.909;-34.844;71.83;4.469;-40.256;-47.62;-18.123;-18.196;;-90.324;-17.65
1440;-58.51;39.175;86.591;6.763;-38.833;72.516;4.308;-38.562;-47.858;-13.327;-17.293;;-91.703;-16.116
1450;-61.942;35.878;84.702;10.289;-44.115;74.051;3.435;-36.275;-47.882;-8.345;-16.658;;-92.913;-13.138
1460;-64.811;30.827;83.294;12.844;-51.68;76.782;2.316;-34.18;-48.554;-3.274;-16.193;;-95.978;-11.252
1470;-67.773;22.726;80.799;16.645;-59.349;81.157;0.554;-32.801;-49.209;1.805;-16.279;;-98.79;-10.904
1480;-65.983;14.663;81.413;21.351;-70.63;83.752;-1.012;-31.793;-49.763;7.281;-15.862;;-102.324;-11.003
1490;-62.603;5.246;81.598;26.187;-82.7;82.691;-4.205;-30.161;-50.826;11.433;-15.187;;-102.346;-9.996
1500;-58.369;-1.209;81.817;31.289;-90.763;80.355;-6.473;-28.583;-53.007;15.593;-13.544;;-99.322;-9.49
1510;-52.711;-10.164;76.422;35.421;-96.975;78.572;-9.64;-26.973;-54.846;19.174;-11.272;;-96.156;-7.921
1520;-45.913;-15.155;70.191;41.731;-102.606;75.646;-13.21;-25.785;-56.186;22.093;-9.575;;-97.691;-6.168
1530;-39.623;-19.901;63.971;47.802;-108.053;74.442;-17.21;-25.316;-55.548;25.013;-7.97;;-97.742;-6.399
1540;-38.119;-21.265;59.617;53.05;-108.134;73.088;-21.313;-24.01;-53.579;28.696;-5.8;;-97.291;-7.823
1550;-42.793;-25.313;53.615;55.357;-109.953;70.032;-24.64;-22.53;-52.64;33.74;-3.353;;-96.852;-8.09
1560;-47.363;-31.374;51.298;59.094;-111.91;65.407;-26.914;-22.585;-52.33;38.778;-1.479;;-97.482;-7.8
1570;-51.395;-38.263;49.005;64.605;-110.529;59.571;-28.941;-23.011;-51.833;42.587;-1.111;;-97.547;-7.425
1580;-51.802;-43.286;49.207;69.105;-109.364;53.005;-31.551;-21.786;-49.58;45.716;-0.723;;-97.008;-7.189
1590;-53.145;-47.858;49.021;74.322;-107.926;46.785;-34.043;-20.051;-47.388;48.837;-1.023;;-97.255;-8.06
1600;-54.2;-48.68;48.952;77.008;-105.768;45.944;-35.896;-18.064;-45.032;52.096;0.32;;-94.192;-8.832
1610;-53.641;-53.121;45.871;79.651;-105.399;50.605;-37.415;-18.747;-43.843;55.86;3.593;;-89.942;-9.787
1620;-52.062;-54.904;37.324;76.852;-106.434;53.551;-38.99;-19.293;-40.318;59.979;8.291;;-87.834;-10.043
1630;-50.744;-55.334;31.271;78.155;-106.849;53.727;-40.307;-19.684;-36.272;63.901;13.315;;-87.091;-10.358
1640;-49.984;-56.826;25.253;81.592;-106.498;52.085;-40.72;-18.908;-34.136;68.705;17.94;;-84.549;-10.638
1650;-47.006;-61.831;4.4;83.312;-104.209;49.548;-41.065;-17.691;-31.388;72.069;21.375;;-82.032;-10.343
1660;-45.159;-64.14;-0.162;89.943;-101.769;47.394;-41.346;-16.519;-28.934;75.43;23.884;;-81.649;-9.521
1670;-41.927;-63.812;-0.012;95.795;-96.995;45.333;-41.542;-16.54;-25.374;77.912;25.099;;-83.522;-9.725
1680;-40.823;-60.91;0.162;100.985;-90.103;43.287;-42.18;-17.463;-21.926;79.813;26.001;;-86.324;-11.073
1690;-38.773;-59.667;0.219;100.061;-85.318;40.187;-43.653;-18.453;-18.493;81.711;27.296;;-86.668;-11.455
1700;-36.366;-59.721;3.046;98.037;-82.367;35.415;-45.708;-19.856;-15.489;83.65;29.661;;-88.317;-11.612
1710;-32.819;-58.649;5.905;96.653;-78.499;30.44;-47.233;-21.216;-13.674;85.368;32.854;;-88.173;-12.076
1720;-34.021;-54.404;7.089;94.056;-74.461;25.803;-48.341;-21.846;-12.667;87.083;35.544;;-87.329;-11.999
1730;-37.484;-50.618;5.778;89.056;-66.377;22.367;-47.243;-22.645;-11.342;87.931;36.058;;-86.758;-12.877
1740;-38.45;-47.097;4.065;80.469;-55.592;20.546;-42.636;-24.433;-8.329;88.333;35.634;;-85.77;-13.061
1750;-36.591;-46.534;2.38;71.483;-43.986;20.484;-38.167;-25.803;-3.873;88.733;35.537;;-83.167;-14.667
1760;-34.598;-47.869;3.213;63.514;-29.925;20.501;-35.79;-27.546;0.822;88.649;36.544;;-81.468;-15.524
1770;-32.64;-48.692;4.405;55.587;-12.495;22.198;-34.69;-28.304;3.843;90.554;39.446;;-77.788;-14.863
1780;-29.928;-48.193;5.396;48.348;5.668;23.939;-32.634;-28.002;5.739;92.46;43.576;;-73.336;-13.434
1790;-27.955;-48.909;4.852;40.931;21.719;26.796;-29.651;-26.644;6.189;94.069;47.623;;-71.954;-13.75
1800;-22.084;-51.45;3.96;35.869;38.611;31.945;-28.335;-25.03;9.226;96.432;47.746;;-68.604;-15.28
1810;-16.447;-58.291;-3.581;28.647;52.026;36.535;-30.065;-24.399;11.895;96.563;45.226;;-68.121;-18.088
1820;-11.419;-62.812;-11.121;19.799;62.183;40.519;-29.476;-24.432;14.073;97.652;44.077;;-71.16;-19.072
1830;-10.331;-67.832;-23.178;12.074;65.746;46.055;-28.259;-25.374;15.781;96.761;43.03;;-77.185;-18.919
1840;-8.67;-71.44;-32.155;3.109;71.578;48.999;-27.563;-25.19;16.545;93.83;41.702;;-80.723;-17.851
1850;-5.883;-79.844;-41.352;-3.556;77.734;47.101;-26.159;-24.665;18.266;89.828;39.055;;-86.967;-18.276
1860;2.697;-81.459;-47.626;-10.163;83.992;41.494;-24.669;-21.913;20.288;86.214;34.326;;-94.115;-19.89
1870;12.174;-83.923;-54.417;-11.301;91.901;37.745;-24.997;-19.789;21.953;83.4;27.328;;-98.241;-21.154
1880;23.459;-81.986;-62.015;-16.04;101.89;34.41;-27.116;-17.865;23.332;80.586;19.908;;-100.361;-22.924
1890;35.61;-78.21;-69.614;-22.298;114.993;33.068;-29.612;-16.619;24.451;76.177;14.679;;-102.462;-23.21
1900;46.137;-71.69;-76.079;-26.458;128.921;31.141;-30.425;-15.628;25.004;73.513;10.845;;-101.745;-23.309
1910;56.505;-66.163;-83.059;-36.359;143.67;27.978;-30.938;-14.28;25.05;70.85;6.692;;-98.102;-24.037
1920;58.382;-62.48;-93.777;-45.863;157.101;24.186;-31.603;-12.946;25.236;69.043;1.782;;-95.327;-23.88
1930;68.131;-64.877;-103.015;-53.735;165.988;22.639;-32.535;-11.281;25.535;67.233;-2.859;;-95.175;-24.628
1940;73.492;-64.193;-113.737;-53.236;176.755;20.466;-33.772;-9.553;26.669;65.423;-7.192;;-95.207;-26.577
1950;77.506;-63.334;-123.35;-50.417;184.491;19.844;-34.694;-6.908;27.113;63.217;-12.297;;-92.753;-29.903
1960;75.705;-65.637;-132.964;-48.692;190.166;18.073;-34.728;-4.337;28.757;59.756;-18.368;;-90.545;-31.109
1970;80.67;-65.261;-139.33;-46.19;195.978;14.506;-35.006;-1.844;31.523;56.295;-24.186;;-88.261;-31.459
1980;85.794;-64.752;-141.241;-43.88;205.066;10.411;-37.228;-0.018;34.91;51.07;-29.625;;-85.014;-31.217
1990;90.437;-54.303;-142.178;-38.153;214.389;6.247;-42.099;1.108;36.59;46.894;-34.526;;-81.774;-32.203
2000;89.953;-42.709;-141.418;-32.014;220.657;3.393;-47.312;3.719;37.532;42.717;-39.143;;-78.932;-32.585
2010;91.84;-28.154;-140.069;-27.48;225.19;1.698;-49.796;7.014;37.487;39.688;-44.735;;-75.418;-30.557
2020;94.706;-14.548;-138.247;-25.008;224.263;1.378;-50.75;8.559;39.08;34.87;-51.646;;-73.797;-28.612
2030;97.992;1.657;-136.425;-22.924;220.448;1.335;-52.441;9.735;39.808;29.833;-59.807;;-73.429;-25.742
2040;101.574;14.273;-131.288;-19.971;216.943;1.397;-53.377;9.063;39.865;24.887;-66.961;;-69.535;-23.211
2050;104.28;27.45;-123.961;-17.999;213.022;0.554;-52.714;7.932;37.258;19.526;-70.486;;-67.57;-21.479
2060;104.025;41.379;-119.316;-16.019;210.796;-0.858;-53.379;7.997;35.88;14.899;-74.125;;-65.268;-18.801
2070;107.435;54.259;-114.484;-15.534;212.09;-4.077;-56.023;9.632;36.677;9.143;-76.699;;-58.425;-17.419
2080;113.463;67.852;-108.792;-14.757;219.902;-9.041;-58.12;11.983;37.903;5.063;-77.858;;-45.105;-17.643
2090;118.252;80.966;-99.84;-14.723;224.372;-12.411;-59.051;14.328;38.913;3.277;-78.386;;-32.647;-20.605
2100;120.876;94.557;-90.888;-15.435;228.229;-14.051;-60.277;16.659;39.71;1.491;-78.692;;-24.946;-16.851
2110;119.367;103.808;-81.166;-15.894;228.112;-15.428;-61.448;17.632;40.11;-1.916;-79.488;;-19.097;-12.066
2120;118.017;110.884;-71.389;-15.033;225.31;-18.072;-59.186;18.181;39.542;-6.171;-79.244;;-12.575;-9.956
2130;115.761;112.72;-58.137;-13.902;218.869;-22.861;-55.486;18.43;38.709;-10.426;-77.829;;-4.386;-7.368
2140;114.448;111.737;-44.884;-12.949;207.229;-27.128;-52.077;19.674;36.422;-14.483;-78.257;;5.51;-0.974
2150;113.061;113.236;-31.8;-12.102;192.388;-30.303;-49.061;20.35;34.314;-19.517;-78.783;;15.117;4.815
2160;111.432;116.516;-20.251;-10.825;177.608;-33.124;-46.142;19.692;32.801;-24.552;-76.963;;23.203;8.397
2170;116.451;121.236;-8.557;-8.612;161.117;-35.098;-43.33;18.992;32.89;-29.498;-73.109;;33.655;9.636
2180;115.589;128.47;0.463;-7.999;147.068;-37.837;-40.415;18.215;33.913;-34.426;-69.607;;49.921;10.683
2190;114.32;134.108;9.032;-10.229;131.058;-39.855;-36.778;16.91;35.103;-39.354;-65.983;;66.728;12.006
2200;113.741;141.036;20.305;-13.959;117.481;-41.174;-33.057;14.044;37.36;-44.086;-63.17;;79.463;14.226
2210;115.857;149.244;31.578;-16.968;105.244;-42.171;-29.572;11.19;38.585;-47.44;-60.374;;90.866;16.754
2220;115.171;154.523;45.734;-19.901;92.727;-43.644;-25.476;8.902;38.381;-50.794;-56.844;;101.206;19.255
2230;115.815;157.24;56.417;-21.57;76.763;-45.121;-20.548;7.614;36.339;-52.421;-51.926;;109.015;22.495
2240;115.457;152.299;67.058;-22.92;59.335;-47.557;-15.503;6.432;34.822;-54.657;-45.948;;114.954;25.848
2250;117.75;147.679;78.04;-24.132;43.079;-52.192;-10.833;3.513;32.836;-56.423;-38.902;;120.657;28.801
2260;120.513;142.199;86.811;-25.257;25.094;-58.001;-7.374;0.101;31.274;-58.299;-31.258;;126.356;28.386
2270;125.301;136.811;91.592;-26.422;9.113;-64.921;-4.528;-1.326;28.828;-58.899;-23.451;;131.524;26.531
2280;128.337;129.392;96.372;-26.938;-4.928;-72.738;-1.487;-2.014;26.901;-59.366;-15.806;;137.996;25.007
2290;132.568;126.212;98.12;-27.891;-18.646;-80.695;0.832;-2.815;25.168;-59.48;-8.568;;144.203;25.011
2300;134.821;124.822;100.996;-29.05;-29.909;-89.572;3.314;-2.692;24.778;-60.899;-0.964;;150.201;25.596
2310;136.876;120.76;105.425;-28.629;-40.112;-97.436;6.044;-1.589;23.434;-62.699;6.532;;155.29;24.247
2320;138.971;114.794;112.407;-25.339;-51.875;-100.847;8.876;-2.84;22.328;-64.499;14.08;;159.537;23.414
2330;141.383;109.332;118.91;-22.685;-63.752;-101.775;12.37;-3.895;19.226;-66.745;21.359;;157.084;24.861
2340;143.908;103.319;121.555;-19.465;-73.833;-101.323;16.497;-4.603;16.486;-69.052;27.047;;152.55;29.583
2350;147.488;97.985;124.199;-17.326;-84.211;-101.294;19.684;-6.532;14.647;-71.36;32.377;;152.604;29.785
2360;149.956;91.571;124.532;-16.488;-91.532;-100.832;23.394;-6.163;9.659;-72.04;39.404;;155.588;29.459
2370;152.041;85.152;126.545;-15.89;-95.872;-100.244;25.277;-4.171;5.523;-72.021;45.432;;161.149;30.337
2380;150.281;79.669;128.56;-15.4;-99.211;-100.257;26.607;-1.83;4.956;-72.001;49.439;;165.946;31.29
2390;152.836;74.123;130.892;-15.026;-101.672;-100.923;27.425;-0.895;11.943;-70.592;54.637;;167.648;26.683
2400;154.79;66.217;133.844;-15.036;-103.466;-101.643;28.494;-0.759;19.069;-67.748;60.568;;166.614;21.583
2410;153.188;58.608;134.381;-14.425;-105.392;-102.19;30.537;-0.346;21.01;-64.903;63.272;;164.495;18.761
2420;145.663;51.508;134.917;-12.967;-106.662;-99.659;32.581;0.662;17.287;-61.367;65.557;;162.152;18.623
2430;136.752;45.426;143.979;-11.633;-107.388;-97.197;33.629;1.43;12.298;-57.808;69.509;;161.152;19.286
2440;128.988;38.785;147.291;-9.71;-107.912;-95.524;34.716;1.731;9.619;-54.25;73.041;;156.712;20.219
2450;121.421;32.79;149.935;-8.381;-109.448;-94.084;35.681;3.31;6.057;-47.481;75.763;;153.356;20.498
2460;112.797;26.851;152.055;-7.037;-111.832;-92.63;36.651;5.021;3.719;-42.234;79.476;;154.484;19.017
2470;103.332;21.394;151.869;-6.881;-114.545;-90.793;37.357;6.819;0.977;-36.486;84.484;;155.034;17.218
2480;93.223;16.858;147.524;-6.552;-116.81;-88.967;38.2;9.163;-0.357;-30.897;88.57;;154.462;15.31
2490;78.098;12.83;143.179;-6.149;-118.186;-85.463;39.593;11.193;-1.767;-24.172;90.237;;154.643;14.232
2500;63.017;9.948;140.443;-6.128;-118.701;-79.299;41.614;13.35;-3.273;-18.447;88.597;;154.621;13.909
2510;51.017;6.738;135.575;-5.462;-118.055;-72.679;44.946;18.419;-4.575;-12.735;86.737;;155.378;14.8
2520;38.869;-0.352;132.639;-5.244;-116.309;-68.036;48.676;23.777;-4.983;-7.589;86.884;;156.607;15.586
2530;26.215;-8.741;129.702;-5.262;-113.903;-64.273;52.643;26.808;-5.372;-0.379;86.139;;156.316;15.999
2540;14.154;-19.887;127.726;-5.45;-111.491;-59.919;56.45;28.679;-6.012;6.83;82.814;;154.203;16.777
2550;3.8;-29.417;121.252;-4.008;-110.029;-54.567;59.906;28.754;-8.132;14.577;79.652;;151.847;18.021
2560;-4.771;-36.506;114.717;-3.425;-109.338;-48.432;63.571;27.353;-10.459;21.032;76.418;;152.716;19.183
2570;-14.361;-42.09;102.201;-4.924;-107.527;-45.51;66.879;27.203;-13.986;27.487;72.192;;153.461;19
2580;-23.306;-51.535;88.24;-6.633;-105.919;-45.159;69.537;26.011;-15.748;36.008;68.393;;156.659;16.406
2590;-30.255;-60.69;77.091;-9.596;-105.495;-46.012;73.233;24.157;-17.059;42.92;66.92;;160.786;13.688
2600;-37.752;-65.004;65.942;-11.858;-104.72;-48.921;78.103;23.85;-20.266;49.832;65.321;;163.412;9.712
2610;-45.51;-66.732;57.292;-12.901;-104.088;-52.903;82.079;21.982;-20.114;53.746;62.607;;161.357;5.839
2620;-56.379;-68.425;49.185;-13.706;-104.16;-54.554;86.19;19.025;-20.012;56.837;61.592;;157.337;2.854
2630;-64.076;-72.057;39.783;-14.486;-103.901;-54.029;91.088;16.334;-23.425;59.928;62.343;;156.161;-1.194
2640;-76.575;-71.888;30.47;-16.033;-102.687;-53.302;95.752;15.519;-32.014;63.168;61.863;;155.214;-4.957
2650;-85.321;-71.779;21.269;-18.084;-100.785;-53.044;98.52;16.331;-39.561;66.983;59.361;;153.812;-7.239
2660;-87.778;-72.204;17.385;-19.437;-99.721;-52.211;100.577;16.659;-41.903;70.799;60.475;;153.858;-7.71
2670;-87.378;-73.926;13.501;-19.232;-98.788;-54.109;104.663;15.666;-42.676;75.073;59.201;;152.721;-7.902
2680;-87.716;-75.687;1.313;-18.968;-99.588;-54.297;108.906;15.359;-42.764;81.152;55.684;;146.523;-7.396
2690;-92.777;-75.617;-4.948;-18.84;-101.145;-51.83;111.971;14.894;-45.066;87.959;52.214;;143.156;-9.124
2700;-100.083;-76.364;-12.502;-19;-103.164;-49.486;113.719;12.742;-45.389;91.566;49.76;;142.388;-11.794
2710;-104.959;-76.534;-20.571;-20.022;-101.4;-47.643;114.117;11.393;-44.97;95.163;46.56;;138.497;-13.967
2720;-110.861;-78.783;-31.927;-20.826;-99.517;-45.323;114.199;10.332;-44.057;96.451;41.172;;135.292;-16.418
2730;-118.059;-78.909;-40.023;-21.139;-97.345;-39.113;114.131;8.371;-42.597;97.739;35.766;;133.974;-17.963
2740;-122.139;-75.891;-48.12;-21.692;-95.292;-35.906;115.098;7.177;-41.113;97.306;31.382;;134.898;-18.684
2750;-125.771;-75.541;-58.168;-21.526;-93.523;-37.812;115.411;6.095;-39.436;95.697;28.873;;134.788;-19.43
2760;-133.087;-76.619;-67.346;-21.597;-92.633;-39.903;114.701;1.774;-38.221;94.087;26.423;;131.044;-20.462
2770;-141.135;-74.462;-75.57;-21.884;-90.858;-41.945;113.538;-4.121;-37.433;91.32;21.068;;123.705;-22.266
2780;-144.585;-71.796;-83.428;-21.924;-90.131;-44.221;112.396;-7.88;-36.761;85.297;15.71;;116.263;-24.076
2790;-144.025;-68.759;-92.214;-20.949;-89.342;-48.004;110.703;-9.229;-35.437;79.273;12.637;;112.063;-26.436
2800;-143.31;-70.79;-101.086;-20.152;-89.121;-51.014;108.844;-9.076;-34.095;73.545;10.05;;110.186;-28.702
2810;-144.731;-73.08;-109.957;-19.759;-87.12;-51.639;106.512;-10.015;-32.781;68.374;7.785;;107.961;-30.992
2820;-148.12;-74.585;-115.014;-19.848;-84.479;-52.359;105.534;-10.61;-31.586;63.203;6.273;;104.626;-32.823
2830;-151.97;-72.17;-117.342;-20.377;-81.426;-50.996;104.615;-11.476;-30.483;55.808;4.452;;99.291;-33.777
2840;-150.935;-66.862;-120.339;-20.989;-78.308;-50.881;101.636;-12.346;-29.45;50.731;1.548;;95.506;-34.633
2850;-148.473;-66.212;-123.095;-21.359;-75.299;-46.858;97.886;-12.931;-27.948;45.654;-1.142;;92.782;-34.817
2860;-146.881;-64.401;-125.956;-21.459;-71.684;-39.868;94.328;-13.527;-24.949;43.617;-3.15;;91.895;-34.08
2870;-146.517;-60.83;-128.273;-21.028;-67.628;-31.663;90.659;-14.851;-22.204;40.753;-4.415;;93.629;-33.29
2880;-146.225;-54.637;-130.59;-20.731;-63.85;-21.172;87.719;-16.428;-17.298;37.848;-4.622;;92.608;-32.201
2890;-147.869;-53.23;-132.846;-20.059;-60.714;-11.386;84.894;-18.088;-12.903;32.524;-6.309;;86.483;-31.126
2900;-152.509;-53.088;-135.343;-18.629;-59.028;1.866;81.285;-19.946;-9.297;27.041;-7.804;;80.412;-31.08
2910;-160.626;-53.906;-137.199;-18.141;-56.87;10.814;78.143;-21.687;-6.69;22.356;-10.996;;74.661;-31.781
2920;-167.01;-53.448;-139.054;-19.531;-54.189;18.731;74.001;-23.177;-1.724;16.971;-13.257;;69.808;-30.258
2930;-173.139;-52.381;-138.461;-18.68;-50.422;28.713;70.705;-24.549;1.938;10.028;-15.305;;65.957;-28.418
2940;-172.037;-49.472;-138.757;-17.913;-44.217;37.21;67.783;-24.047;5.305;2.286;-18.292;;60.961;-25.808
2950;-168.629;-46.203;-139.026;-16.302;-35.851;45.607;65.287;-22.19;7.738;-5.36;-20.433;;53.743;-24.124
2960;-164.57;-42.719;-134.248;-14.243;-30.61;52.677;62.822;-21.302;10.183;-12.163;-21.266;;45.463;-22.833
2970;-154.692;-37.519;-126.592;-12.257;-25.519;60.39;59.659;-20.647;12.87;-17.807;-22.666;;37.592;-19.272
2980;-143.757;-31.988;-120.425;-10.589;-20.49;66.401;55.858;-20.007;14.949;-23.451;-24.054;;31.297;-16.094
