timepoints (min);46: wc-2-.3
690;-151.178
700;-147.803
710;-145.067
720;-142.842
730;-134.51
740;-127.248
750;-120.883
760;-115.537
770;-110.781
780;-106.531
790;-102.718
800;-99.435
810;-96.44
820;-90.527
830;-84.603
840;-79.498
850;-74.386
860;-69.267
870;-64.14
880;-58.937
890;-53.722
900;-48.495
910;-41.657
920;-35.412
930;-29.144
940;-25.974
950;-22.171
960;-18.35
970;-14.513
980;-15.141
990;-16.513
1000;-17.876
1010;-18.67
1020;-19.457
1030;-19.576
1040;-19.698
1050;-19.143
1060;-14.831
1070;-10.413
1080;-6
1090;-0.672
1100;2.031
1110;4.737
1120;7.447
1130;9.839
1140;11.59
1150;13.348
1160;13.512
1170;13.681
1180;14.572
1190;15.467
1200;15.964
1210;17.344
1220;18.687
1230;20.034
1240;22.464
1250;26.062
1260;29.666
1270;33.275
1280;36.81
1290;41.418
1300;46.028
1310;46.88
1320;47.734
1330;49.017
1340;50.299
1350;53.779
1360;55.859
1370;57.632
1380;59.408
1390;61.628
1400;61.991
1410;62.357
1420;61.414
1430;59.91
1440;58.087
1450;56.546
1460;54.126
1470;51.705
1480;50.204
1490;48.731
1500;45.938
1510;43.145
1520;42.672
1530;42.061
1540;41.108
1550;39.314
1560;37.521
1570;35.687
1580;34.425
1590;31.843
1600;29.261
1610;27.968
1620;26.676
1630;22.903
1640;19.131
1650;17.101
1660;15.07
1670;12.56
1680;10.05
1690;7.646
1700;7.161
1710;6.677
1720;6.193
1730;4.748
1740;4.262
1750;3.777
1760;3.567
1770;1.472
1780;-1.383
1790;-4.239
1800;-6.185
1810;-8.483
1820;-10.581
1830;-12.679
1840;-13.643
1850;-14.145
1860;-14.647
1870;-15.149
1880;-13.157
1890;-12.166
1900;-10.767
1910;-8.72
1920;-6.193
1930;-4.906
1940;-3.626
1950;-4.646
1960;-5.665
1970;-4.964
1980;-4.319
1990;-4.709
2000;-5.219
2010;-5.73
2020;-6.04
2030;-5.494
2040;-4.948
2050;-6.041
2060;-7.135
2070;-8.429
2080;-9.723
2090;-11.177
2100;-13.299
2110;-15.422
2120;-17.545
2130;-18.868
2140;-18.804
2150;-18.741
2160;-18.677
2170;-18.374
2180;-17.127
2190;-15.88
2200;-14.633
2210;-13.548
2220;-14.341
2230;-15.134
2240;-15.927
2250;-16.804
2260;-17.495
2270;-18.186
2280;-18.877
2290;-19.303
2300;-18.034
2310;-16.766
2320;-15.497
2330;-13.509
2340;-11.217
2350;-8.924
2360;-6.632
2370;-6.459
2380;-7.087
2390;-7.728
2400;-8.514
2410;-7.261
2420;-6.247
2430;-5.537
2440;-5.054
2450;-2.611
2460;-0.248
2470;2.066
2480;3.953
2490;5.84
2500;5.247
2510;4.902
2520;4.474
2530;4.047
2540;3.339
2550;3.094
2560;2.848
2570;2.603
2580;2.117
2590;1.742
2600;1.367
2610;0.992
2620;1.977
2630;2.927
2640;3.877
2650;4.828
2660;4.618
2670;4.594
2680;4.571
2690;4.548
2700;3.262
2710;1.659
2720;0.057
2730;-1.546
2740;-4.681
2750;-5.346
2760;-6.011
2770;-6.676
2780;-5.634
2790;-4.53
2800;-3.425
2810;-2.32
2820;0.001
2830;1.644
2840;3.287
2850;4.909
2860;5.83
2870;7.912
2880;9.993
2890;11.909
2900;13.222
2910;13.655
2920;14.088
2930;14.542
2940;14.128
2950;13.154
2960;12.063
2970;10.972
2980;10.019
2990;10.396
3000;10.772
3010;11.149
3020;11.443
3030;11.577
3040;11.71
3050;11.844
3060;11.895
3070;11.306
3080;10.717
3090;10.025
3100;9.353
3110;8.321
3120;7.276
3130;6.23
3140;5.24
3150;3.83
3160;2.421
3170;1.011
3180;-0.302
3190;-0.703
3200;-1.105
3210;-1.506
3220;-2.687
3230;-4.428
3240;-6.248
3250;-8.021
3260;-9.441
3270;-11.742
3280;-15.803
3290;-19.222
3300;-22.303
3310;-23.545
3320;-25.101
3330;-26.657
3340;-28.212
3350;-31.167
3360;-32.681
3370;-34.196
3380;-35.834
3390;-38.066
3400;-39.538
3410;-41.01
3420;-42.047
3430;-40.949
3440;-40.171
3450;-39.007
3460;-40.043
3470;-41.279
3480;-41.913
3490;-41.588
3500;-41.262
3510;-40.964
3520;-39.786
3530;-38.728
3540;-37.67
3550;-36.592
3560;-36.673
3570;-36.754
3580;-36.601
3590;-36.043
3600;-34.844
3610;-33.632
3620;-31.699
3630;-29.436
3640;-26.572
3650;-23.902
3660;-20.672
3670;-17.283
3680;-16.229
3690;-14.575
3700;-12.921
3710;-9.054
3720;-5.106
3730;-1.159
3740;1.919
3750;4.821
3760;7.723
3770;10.625
3780;13.268
3790;17.206
3800;21.143
3810;24.477
3820;29.811
3830;35.145
3840;39.956
3850;44.487
3860;49.018
3870;52.436
3880;56.157
3890;56.159
3900;56.16
3910;55.422
3920;54.932
3930;54.443
3940;53.622
3950;54.841
3960;55.812
3970;56.345
3980;57.597
3990;58.85
4000;60.091
4010;61.381
4020;60.15
4030;58.92
4040;56.546
4050;51.932
4060;47.319
4070;40.712
4080;33.768
4090;26.825
4100;20.403
4110;15.021
4120;9.487
4130;3.953
4140;2.167
4150;0.821
4160;-0.208
4170;-1.561
4180;-4.275
4190;-6.988
4200;-11.486
4210;-16.063
4220;-20.641
4230;-26.043
4240;-31.548
4250;-35.932
4260;-40.317
4270;-42.251
4280;-42.346
4290;-42.441
4300;-40.538
4310;-40.174
4320;-39.81
4330;-39.206
4340;-39.535
4350;-39.865
4360;-41.234
4370;-42.646
4380;-41.877
4390;-41.109
4400;-40.781
4410;-41.279
4420;-41.777
4430;-40.914
4440;-40.535
4450;-40.156
4460;-39.697
4470;-36.364
4480;-33.032
4490;-29.699
4500;-27.487
4510;-23.676
4520;-19.865
4530;-17.534
4540;-16.894
4550;-16.254
4560;-14.454
4570;-10.56
4580;-6.494
4590;-1.908
4600;2.658
4610;6.543
4620;10.429
4630;12.114
4640;12.648
4650;13.32
4660;14.432
4670;15.848
4680;17.803
4690;20.357
4700;21.463
4710;22.356
4720;20.968
4730;19.581
4740;17.392
4750;14.568
4760;10.705
4770;7.596
4780;4.77
4790;3.503
4800;0.469
4810;-2.566
4820;-7.135
4830;-10.981
4840;-14.826
4850;-18.741
4860;-22.375
4870;-26.044
4880;-29.713
4890;-31.941
4900;-33.154
4910;-34.368
4920;-35.583
4930;-36.84
4940;-34.737
4950;-31.585
4960;-28.254
4970;-24.683
4980;-21.112
4990;-16.932
5000;-12.677
5010;-5.502
5020;0.512
5030;6.291
5040;12.03
5050;19.89
5060;27.59
5070;32.571
5080;36.952
5090;41.126
5100;45.492
5110;47.179
5120;48.466
5130;50.332
5140;53.559
5150;55.385
5160;57.328
5170;59.272
5180;60.215
5190;57.681
5200;55.148
5210;54.934
5220;54.48
5230;54.461
5240;54.441
5250;53.622
5260;49.903
5270;46.185
5280;39.346
5290;32.444
5300;25.549
5310;19.894
5320;17.352
5330;14.61
5340;11.868
5350;12.806
5360;16.603
5370;20.241
5380;22.24
5390;22.61
5400;22.862
5410;23.114
5420;20.565
5430;18.817
5440;17.068
5450;15.719
5460;12.001
5470;8.601
5480;5.201
5490;1.32
5500;-1.83
5510;-4.981
5520;-7.898
5530;-7.695
5540;-8.244
5550;-6.995
5560;-6.985
5570;-6.251
5580;-5.517
5590;-7.411
5600;-12.985
5610;-18.738
5620;-21.807
5630;-23.236
5640;-24.465
5650;-26.059
5660;-26.814
5670;-24.512
5680;-22.106
5690;-18.501
5700;-15.295
5710;-11.945
5720;-8.526
5730;-6.986
5740;-5.207
5750;-3.386
5760;-3.406
5770;-3.665
5780;-3.924
5790;-3.982
5800;-6.08
5810;-8.178
5820;-10.91
5830;-13.963
5840;-14.415
5850;-14.868
5860;-14.97
5870;-17.632
5880;-20.294
5890;-22.963
5900;-24.796
5910;-27.469
5920;-30.611
5930;-32.593
5940;-35.817
5950;-39.04
5960;-42.726
5970;-45.436
5980;-46.266
5990;-46.862
6000;-46.778
6010;-44.295
6020;-41.812
6030;-38.342
6040;-35.032
6050;-31.68
6060;-27.928
6070;-26.017
6080;-23.785
6090;-22.243
6100;-20.439
6110;-18.074
6120;-15.531
6130;-13.526
6140;-7.16
6150;-0.754
6160;4.561
6170;5.677
6180;5.633
6190;5.589
6200;6.897
6210;9.244
6220;10.672
6230;12.017
6240;12.201
6250;11.706
6260;11.211
6270;10.895
6280;9.419
6290;7.943
6300;6.537
6310;3.476
6320;2.255
6330;1.034
6340;-0.228
6350;-1.109
6360;-1.99
6370;-2.83
6380;-3.836
6390;-6.081
6400;-7.975
6410;-9.869
6420;-3.898
6430;2.073
6440;7.596
6450;13.119
6460;15.531
6470;18.385
6480;21.239
6490;25.252
6500;24.628
6510;24.148
6520;23.068
6530;22.153
6540;21.686
6550;21.218
6560;21.59
6570;21.45
6580;20.985
6590;20.52
6600;18.895
6610;14.217
6620;9.538
6630;4.859
6640;-2.912
6650;-10.109
6660;-17.306
6670;-28.423
6680;-39.796
6690;-47.168
6700;-54.541
6710;-59.65
6720;-65.964
6730;-72.279
6740;-78.593
6750;-79.835
6760;-73.957
6770;-68.08
6780;-62.003
6790;-55.772
6800;-53.702
6810;-51.632
6820;-49.083
6830;-47.377
6840;-45.67
6850;-43.847
6860;-38.783
6870;-34.509
6880;-30.034
6890;-25.56
6900;-20.846
6910;-11.011
6920;-1.494
6930;8.023
6940;13.617
6950;21.479
6960;29.341
6970;38.243
6980;48.553
6990;59.615
7000;70.677
7010;74.179
7020;77.858
7030;81.537
7040;85.215
7050;93.054
7060;99.543
7070;106.033
7080;113.683
7090;121.105
7100;125.967
7110;130.829
7120;136.514
7130;141.723
7140;146.931
7150;152.139
7160;152.483
7170;153.208
7180;153.934
7190;154.659
7200;153.633
7210;149.687
7220;145.741
7230;140.834
7240;135.708
7250;125.861
7260;116.014
7270;105.363
7280;96.313
7290;87.263
7300;78.214
7310;70.437
7320;63.752
7330;57.066
7340;50.381
7350;45.51
7360;43.2
7370;40.89
7380;39.539
7390;35.557
7400;31.575
7410;27.593
7420;22.436
7430;15.287
7440;8.138
7450;0.989
7460;-3.799
7470;-8.131
7480;-12.463
7490;-16.796
7500;-16.319
7510;-18.161
7520;-20.004
7530;-23.007
7540;-25.663
7550;-28.32
7560;-30.977
7570;-34.772
7580;-40.775
7590;-46.778
7600;-52.781
7610;-60.04
7620;-64.126
7630;-68.211
7640;-70.017
7650;-72.629
7660;-76.121
7670;-79.614
7680;-81.466
7690;-83.186
7700;-84.906
7710;-86.626
7720;-88.87
7730;-93.977
7740;-99.083
7750;-104.189
7760;-105.982
7770;-103.495
7780;-101.008
7790;-98.081
7800;-96.257
7810;-94.432
7820;-92.607
7830;-88.017
7840;-79.406
7850;-70.794
7860;-62.183
7870;-56.677
7880;-54.497
7890;-52.316
7900;-50.135
7910;-47.743
7920;-46.112
7930;-44.48
7940;-43.008
7950;-42.648
7960;-42.288
7970;-41.928
7980;-38.934
7990;-33.383
8000;-27.833
8010;-22.283
8020;-20.819
8030;-18.669
8040;-16.519
8050;-12.928
8060;-10.028
8070;-7.447
8080;-4.866
8090;-6.686
8100;-9.996
8110;-13.306
8120;-16.617
8130;-17.167
8140;-17.815
8150;-18.463
8160;-19.112
8170;-18.834
8180;-20.817
8190;-22.799
8200;-24.021
8210;-25.608
8220;-26.116
8230;-26.623
8240;-29.804
8250;-32.706
8260;-35.608
8270;-38.51
8280;-42.61
8290;-45.949
8300;-49.288
8310;-52.628
8320;-55.116
8330;-57.244
8340;-59.372
8350;-60.741
8360;-62.232
8370;-63.723
8380;-65.214
8390;-66.221
8400;-67.512
8410;-68.803
8420;-70.094
8430;-69.553
8440;-66.564
8450;-63.575
8460;-60.586
8470;-57.981
8480;-50.935
8490;-43.89
8500;-37.364
8510;-28.604
8520;-19.844
8530;-11.084
8540;-2.457
8550;5.692
8560;13.841
8570;21.99
8580;29.297
8590;34.672
8600;40.047
8610;46.462
8620;53.663
8630;61.985
8640;70.306
8650;78.139
8660;86.846
8670;95.552
8680;104.258
8690;111.523
8700;118.052
8710;124.582
8720;131.112
8730;132.76
8740;131.99
8750;131.221
8760;128.251
8770;125.316
8780;122.261
8790;119.206
8800;116.539
8810;118.788
8820;121.036
8830;123.284
8840;127.526
8850;133.146
8860;138.767
8870;144.388
8880;149.012
8890;150.157
8900;151.302
8910;151.367
8920;148.579
8930;145.792
8940;143.004
8950;140.566
8960;130.528
8970;120.491
8980;110.454
8990;103
9000;98.379
9010;93.759
9020;89.138
9030;84.023
9040;77.469
9050;70.914
9060;59.68
9070;48.062
9080;36.444
9090;24.826
9100;11.898
9110;-2.31
9120;-16.519
9130;-30.727
9140;-41.428
9150;-52.506
9160;-63.585
9170;-71.983
9180;-80.023
9190;-86.143
9200;-92.263
9210;-90.923
9220;-90.331
9230;-89.739
9240;-89.148
9250;-91.554
9260;-92.21
9270;-92.865
9280;-93.52
9290;-92.356
9300;-90.526
9310;-88.695
9320;-86.185
9330;-82.654
9340;-80.643
9350;-78.632
9360;-75.161
9370;-72.555
9380;-69.948
9390;-67.341
9400;-64.583
9410;-63.552
9420;-62.52
9430;-61.488
9440;-62.204
9450;-62.8
9460;-63.396
9470;-63.712
9480;-63.419
9490;-63.127
9500;-62.835
9510;-63.556
9520;-63.404
9530;-63.252
9540;-63.101
9550;-64.512
9560;-66.728
9570;-68.945
9580;-71.161
9590;-72.823
9600;-73.286
9610;-73.748
9620;-73.25
9630;-70.954
9640;-68.659
9650;-66.364
9660;-61.902
9670;-57.97
9680;-54.037
9690;-50.105
9700;-46.051
9710;-40.858
9720;-35.665
9730;-30.632
9740;-25.916
9750;-20.4
9760;-14.884
9770;-10.51
9780;-8.16
9790;-5.81
9800;-3.459
9810;-2.186
9820;1.876
9830;5.938
9840;10
9850;13.386
9860;13.614
9870;13.841
9880;12.789
9890;11.412
9900;14.756
9910;18.099
9920;21.966
9930;24.531
9940;27.097
9950;29.662
9960;30.881
9970;31.506
9980;32.131
9990;32.756
10000;32.394
10010;34.153
10020;35.912
10030;39.39
10040;41.028
10050;42.665
10060;44.302
10070;42.916
10080;40.05
10090;37.183
10100;34.476
10110;35.175
10120;34.754
10130;34.554
10140;34.354
10150;29.69
10160;28.167
10170;26.644
10180;26.601
10190;29.258
10200;31.914
10210;34.571
10220;37.622
10230;37.684
10240;37.746
10250;37.808
10260;35.357
10270;32.266
10280;29.175
10290;28.443
10300;27.731
10310;27.139
10320;26.534
10330;27.436
10340;26.698
10350;25.884
10360;25.07
10370;25.494
10380;27.87
10390;30.247
10400;32.623
10410;31.541
10420;30.058
10430;28.575
10440;24.172
10450;20.087
10460;15.761
10470;11.436
10480;10.934
10490;10.872
10500;10.81
10510;10.617
10520;10.953
10530;10.25
10540;9.539
10550;8.829
10560;8.199
10570;7.761
10580;7.324
10590;8.527
10600;10.404
10610;12.281
10620;14.159
10630;13.972
10640;11.306
10650;8.64
10660;5.974
10670;6.194
10680;6.415
10690;6.636
10700;6.081
10710;5.215
10720;4.349
10730;2.168
10740;-0.452
10750;-2.259
10760;-3.183
10770;-4.108
10780;-4.247
10790;-4.826
10800;-5.406
10810;-5.985
10820;-6.874
10830;-8.524
10840;-10.174
10850;-12.663
10860;-13.916
10870;-15.168
10880;-16.421
10890;-14.172
10900;-11.924
10910;-9.676
10920;-8.855
10930;-8.29
10940;-7.724
10950;-5.716
10960;-3.708
10970;-1.892
10980;-0.248
10990;1.396
11000;3.04
11010;4.905
11020;6.77
11030;8.634
11040;11.553
11050;13.832
11060;16.11
11070;18.389
11080;18.324
11090;18.259
11100;18.194
11110;17.818
11120;17.331
11130;16.844
11140;14.825
11150;12.806
11160;10.807
11170;8.548
11180;6.288
11190;3.746
11200;2.641
11210;1.537
11220;0.432
11230;0.928
11240;1.425
11250;1.921
11260;1.618
11270;-1.957
11280;-5.532
11290;-9.108
11300;-12.49
11310;-15.913
11320;-19.337
11330;-19.712
11340;-20.011
11350;-20.31
11360;-21.546
11370;-22.782
11380;-24.197
11390;-24.396
11400;-24.594
11410;-24.793
11420;-24.917
11430;-25.041
11440;-25.166
11450;-27.015
11460;-28.585
11470;-30.155
11480;-32.468
11490;-35.608
11500;-38.749
11510;-42.048
11520;-41.812
11530;-41.577
11540;-41.417
11550;-41.055
11560;-40.694
11570;-39.788
11580;-37.382
11590;-34.977
11600;-32.516
11610;-27.437
11620;-22.359
11630;-17.342
11640;-15.327
11650;-13.312
11660;-11.09
11670;-8.948
11680;-8.297
11690;-7.873
11700;-7.45
11710;-6.268
11720;-5.148
11730;-4.028
11740;-0.949
11750;2.13
11760;5.208
11770;9.483
11780;13.757
11790;18.032
11800;22.279
11810;26.526
11820;30.772
11830;32.03
11840;33.288
11850;34.546
11860;33.756
11870;33.445
11880;33.135
11890;34.68
11900;33.834
11910;32.989
11920;32.392
11930;32.392
11940;32.392
11950;32.35
11960;29.8
11970;27.25
11980;24.658
11990;20.513
12000;16.368
12010;12.244
12020;6.847
12030;1.429
12040;-3.989
12050;-7.783
12060;-11.557
12070;-15.331
12080;-14.218
12090;-13.174
12100;-12.13
12110;-10.166
12120;-9.088
12130;-8.011
12140;-6.494
12150;-2.862
12160;0.77
12170;1.241
12180;1.903
12190;2.566
12200;2.908
12210;4.789
12220;6.67
12230;8.912
12240;11.768
12250;14.625
12260;16.281
12270;18.055
12280;19.829
12290;22.923
12300;25.514
12310;28.155
12320;31.092
12330;29.95
12340;26.899
12350;23.959
12360;20.098
12370;15.905
12380;11.926
12390;7.506
12400;2.444
12410;-2.68
12420;-4.644
12430;-5.837
12440;-6.961
12450;-7.766
12460;-7.145
12470;-6.669
12480;-6.553
12490;-7.068
12500;-7.727
12510;-7.186
12520;-8.086
12530;-9.261
12540;-11.756
12550;-14.011
12560;-15.983
12570;-18.316
12580;-20.408
12590;-20.406
12600;-20.403
12610;-20.465
12620;-19.946
12630;-19.308
12640;-18.662
12650;-17.574
12660;-16.606
12670;-15.686
12680;-15.343
12690;-14.601
12700;-14.101
12710;-14.68
12720;-15.937
12730;-17.207
12740;-18.157
12750;-19.381
12760;-20.963
12770;-21.105
12780;-20.575
12790;-20.142
12800;-19.949
12810;-19.259
12820;-18.846
12830;-18.672
12840;-17.754
12850;-17.313
12860;-16.752
12870;-16.79
12880;-17.08
12890;-17.37
12900;-18.039
12910;-18.588
12920;-18.777
12930;-18.262
12940;-17.782
12950;-17.942
12960;-17.943
12970;-17.475
12980;-18.246
12990;-18.941
13000;-19.756
13010;-20.342
13020;-21.473
13030;-23.324
13040;-25.299
13050;-27.33
13060;-30.16
13070;-32.15
13080;-33.796
13090;-36.281
13100;-37.927
13110;-39.476
13120;-40.425
13130;-41.134
13140;-41.615
13150;-41.103
13160;-41.352
13170;-41.898
13180;-42.396
13190;-43.691
13200;-44.346
13210;-45.321
13220;-46.2
13230;-45.839
13240;-45.517
13250;-45.313
13260;-45.469
13270;-45.345
13280;-45.145
13290;-44.731
13300;-42.917
13310;-40.917
13320;-39.564
13330;-38.131
13340;-36.753
13350;-36.215
13360;-33.349
13370;-30.731
13380;-28.353
13390;-25.615
13400;-22.836
13410;-19.297
13420;-14.157
13430;-9.128
13440;-3.619
13450;4.65
13460;13.28
13470;21.91
13480;31.321
13490;40.772
13500;48.451
13510;56.109
13520;63.487
13530;70.803
13540;76.068
13550;79.932
13560;83.694
13570;89.004
13580;94.234
13590;99.465
13600;104.64
13610;108.495
13620;112.35
13630;116.274
13640;118.039
13650;119.803
13660;121.705
13670;121.986
13680;120.628
13690;119.414
13700;115.661
13710;110.148
13720;104.531
13730;98.154
13740;91.833
13750;86.054
13760;80.275
13770;74.571
13780;68.588
13790;64.724
13800;60.75
13810;56.701
13820;50.051
13830;43.188
13840;36.352
13850;29.636
13860;22.222
13870;14.808
13880;7.581
13890;2.964
13900;-1.652
13910;-6.221
13920;-11.764
13930;-15.668
13940;-19.571
13950;-23.447
13960;-27.003
13970;-30.559
13980;-34.149
13990;-36.579
14000;-37.89
14010;-39.331
14020;-40.807
14030;-41.123
14040;-41.521
14050;-41.913
14060;-42.72
14070;-42.607
14080;-42.494
14090;-42.408
14100;-42.603
14110;-42.797
14120;-43.088
14130;-43.019
14140;-44.03
14150;-44.8
14160;-45.059
14170;-44.199
14180;-43.324
14190;-42.429
14200;-41.094
14210;-37.96
14220;-34.826
14230;-31.421
14240;-29.079
14250;-26.737
14260;-24.615
14270;-22.098
14280;-20.461
14290;-18.761
14300;-17.866
14310;-16.611
14320;-15.356
14330;-13.666
14340;-12.297
14350;-11.077
14360;-9.789
14370;-8.581
14380;-7.732
14390;-7.25
14400;-6.794
14410;-6.499
14420;-5.914
14430;-5.364
14440;-4.974
14450;-5.023
14460;-4.942
14470;-5.171
14480;-6.8
14490;-8.705
14500;-10.727
14510;-13.029
14520;-15.451
14530;-18.156
14540;-20.833
14550;-21.55
14560;-22.571
14570;-23.385
14580;-23.759
14590;-23.812
14600;-24.059
14610;-24.292
14620;-24.246
14630;-24.247
14640;-24.434
14650;-24.662
14660;-25.33
14670;-26.156
14680;-26.872
14690;-27.308
14700;-27.723
14710;-28
14720;-27.437
14730;-25.794
14740;-23.965
14750;-22.254
14760;-19.742
14770;-17.423
14780;-15.084
14790;-12.865
14800;-11.326
14810;-10.034
14820;-8.861
14830;-7.847
14840;-6.633
14850;-5.337
14860;-2.76
14870;-0.383
14880;2.145
14890;4.437
14900;6.77
14910;9.04
14920;11.338
14930;11.876
14940;12.294
14950;12.732
14960;12.771
14970;11.97
14980;11.23
14990;10.477
15000;9.884
15010;8.874
15020;7.879
15030;7.083
15040;6.407
15050;5.807
15060;5.372
15070;6.738
15080;7.879
15090;9.068
15100;10.937
15110;11.526
15120;12.135
15130;12.793
15140;13.651
15150;14.288
15160;14.85
15170;14.211
15180;15.332
15190;16.399
15200;17.396
15210;18.713
15220;20.017
15230;21.361
15240;23.786
15250;26.051
15260;28.392
15270;30.712
15280;32.192
15290;33.644
15300;34.993
15310;35.542
15320;34.291
15330;32.854
15340;31.417
15350;29.979
15360;28.494
15370;27.126
15380;25.637
15390;24.309
15400;23.098
15410;22.025
15420;22.832
15430;23.714
15440;24.57
15450;24.945
15460;25.4
15470;25.89
15480;26.241
15490;24.793
15500;23.338
15510;21.855
15520;20.212
15530;19.21
15540;18.228
15550;17.11
15560;16.793
15570;16.621
15580;16.462
15590;16.383
15600;15.625
15610;14.956
15620;14.31
15630;13.785
15640;13.239
15650;12.727
15660;11.255
15670;9.103
15680;7.007
15690;4.63
15700;2.734
15710;1.058
15720;-0.542
15730;-2.422
15740;-3.644
15750;-4.859
15760;-6.074
15770;-7.124
15780;-8.479
15790;-9.835
15800;-10.51
15810;-11.257
15820;-12.006
15830;-12.995
15840;-14.065
15850;-15.107
15860;-16.149
15870;-16.992
15880;-17.798
15890;-18.603
15900;-18.809
15910;-18.055
15920;-16.95
15930;-15.839
15940;-14.442
15950;-12.904
15960;-11.358
15970;-10.483
15980;-9.32
15990;-8.182
16000;-7.035
16010;-7.12
16020;-7.45
16030;-7.775
16040;-7.936
16050;-8.492
16060;-9.061
16070;-9.624
16080;-9.143
16090;-8.414
16100;-7.675
16110;-6.766
16120;-5.966
16130;-5.306
16140;-4.638
16150;-5.402
16160;-6.35
16170;-7.292
16180;-8.31
16190;-9.323
16200;-10.16
16210;-10.988
16220;-11.727
16230;-12.488
16240;-13.239
16250;-14.181
16260;-14.313
16270;-14.252
16280;-14.217
16290;-14.327
16300;-14.556
16310;-14.771
16320;-15.413
16330;-16.841
16340;-18.464
16350;-20.118
16360;-21.006
16370;-22.047
16380;-23.21
16390;-24.511
16400;-25.012
16410;-25.594
16420;-26.269
16430;-26.94
16440;-27.704
16450;-28.613
16460;-29.701
