timepoints (min);46: wc-2,- -2;47: wc-2,- -3
720;-254.679;-20.093
730;-236.616;-17.983
740;-221.173;-15.973
750;-208.299;-13.382
760;-197.154;-10.886
770;-189.996;-4.979
780;-183.831;0.037
790;-178.45;4.675
800;-175.638;12.605
810;-173.223;19.919
820;-170.689;25.513
830;-164.542;28.161
840;-158.972;30.614
850;-146.29;36.348
860;-135.583;37.972
870;-124.851;39.607
880;-113.96;41.758
890;-103.049;39.107
900;-95.278;36.734
910;-87.619;34.653
920;-80.339;33.645
930;-70.558;35.349
940;-60.758;37.046
950;-59.898;37.993
960;-57.1;41.591
970;-54.284;45.198
980;-55.298;48.939
990;-53.94;50.66
1000;-52.571;52.399
1010;-51.299;55.175
1020;-48.175;55.428
1030;-47.838;55.079
1040;-47.985;55.29
1050;-46.511;52.447
1060;-41.456;51.191
1070;-36.382;49.924
1080;-33.681;51.108
1090;-34.027;51.68
1100;-34.379;52.239
1110;-32.951;57.237
1120;-26.845;59.457
1130;-20.741;61.659
1140;-14.369;64.028
1150;-4.843;66.097
1160;3.996;67.147
1170;13.16;67.348
1180;19.832;64.825
1190;30.373;59.898
1200;40.903;54.968
1210;49.495;47.213
1220;55.316;38.857
1230;61.127;30.501
1240;64.312;24.976
1250;66.452;21.198
1260;68.586;17.407
1270;70.918;13.697
1280;76.042;10.573
1290;83.358;7.315
1300;91.193;3.404
1310;95.452;-2.111
1320;98.616;-9.989
1330;101.765;-17.87
1340;108.265;-24.902
1350;116.106;-33.981
1360;123.928;-43.066
1370;127.183;-48.89
1380;130.618;-53.328
1390;134.033;-57.779
1400;137.429;-62.547
1410;141.487;-66.324
1420;144.007;-66.189
1430;146.502;-65.208
1440;145.099;-61.847
1450;140.312;-56.199
1460;135.524;-50.55
1470;133.614;-44.302
1480;131.223;-40.964
1490;128.833;-36.799
1500;127.483;-34.393
1510;126.868;-33.068
1520;126.321;-32.377
1530;125.775;-31.686
1540;123.194;-30.875
1550;122.159;-26.917
1560;121.123;-22.96
1570;121.167;-16.215
1580;120.662;-7.694
1590;120.157;0.828
1600;118.292;11.389
1610;116.537;18.142
1620;114.463;25.33
1630;112.19;31.117
1640;111.997;34.545
1650;111.749;38.497
1660;111.501;42.097
1670;112.772;41.777
1680;108.732;40.763
1690;104.934;39.749
1700;102.255;35.792
1710;100.192;29.644
1720;97.17;23.497
1730;94.628;19.149
1740;90.845;13.961
1750;86.519;8.905
1760;81.346;4.928
1770;74.614;4.872
1780;68.309;5.284
1790;62.583;6.241
1800;56.858;4.039
1810;51.503;3.171
1820;46.149;2.303
1830;41.481;-0.444
1840;38.501;-7.441
1850;35.52;-14.439
1860;31.417;-17.276
1870;26.273;-20.593
1880;20.647;-24.538
1890;12.941;-26.123
1900;2.847;-24.348
1910;-6.633;-22.297
1920;-16.113;-20.245
1930;-19.633;-18.473
1940;-24.844;-18.164
1950;-30.055;-17.855
1960;-36.226;-16.066
1970;-42.124;-17.629
1980;-48.022;-19.192
1990;-52.68;-19.914
2000;-57.338;-18.917
2010;-62.223;-17.637
2020;-65.549;-20.277
2030;-68.834;-27.837
2040;-71.858;-35.811
2050;-74.881;-43.785
2060;-77.945;-52.404
2070;-82.164;-61.127
2080;-86.673;-63.41
2090;-92.462;-61.732
2100;-98.43;-60.228
2110;-105.879;-58.723
2120;-111.983;-54.138
2130;-118.088;-49.553
2140;-124.774;-44.989
2150;-128.23;-44.447
2160;-131.687;-43.905
2170;-135.33;-46.25
2180;-137.932;-48.594
2190;-138.886;-49.103
2200;-139.604;-49.964
2210;-138.403;-52.865
2220;-137.054;-52.966
2230;-135.67;-52.825
2240;-134.287;-53.195
2250;-134.183;-55.284
2260;-134.17;-55.334
2270;-134.418;-54.708
2280;-134.706;-50.899
2290;-136.394;-47.091
2300;-137.972;-41.068
2310;-139.55;-35.044
2320;-134.888;-29.021
2330;-130.737;-28.789
2340;-126.585;-28.557
2350;-122.433;-28.806
2360;-114.599;-29.24
2370;-106.778;-31.674
2380;-98.957;-34.109
2390;-93.537;-39.703
2400;-87.378;-44.753
2410;-81.219;-49.803
2420;-75.061;-52.779
2430;-67.848;-55.432
2440;-60.498;-58.444
2450;-53.148;-61.457
2460;-43.681;-62.657
2470;-34.429;-63.857
2480;-25.177;-62.017
2490;-15.566;-60.583
2500;-6.834;-59.502
2510;2.207;-60.461
2520;11.248;-61.419
2530;19.262;-59.186
2540;25.236;-56.953
2550;31.065;-57.011
2560;37.059;-57.324
2570;36.414;-57.197
2580;35.63;-57.07
2590;34.633;-56.626
2600;33.636;-55.702
2610;31.159;-57.418
2620;28.447;-58.458
2630;25.735;-59.498
2640;28.743;-56.902
2650;31.903;-54.306
2660;35.07;-52.919
2670;38.237;-51.531
2680;40.804;-50.143
2690;43.943;-49.079
2700;47.083;-45.254
2710;46.262;-41.429
2720;43.502;-37.687
2730;40.921;-36.875
2740;38.341;-36.062
2750;34.724;-30.83
2760;30.777;-25.599
2770;26.829;-19.843
2780;22.881;-17.327
2790;22.71;-17.805
2800;22.381;-18.284
2810;22.051;-18.763
2820;25.997;-19.971
2830;30.33;-21.179
2840;34.662;-19.428
2850;38.994;-17.379
2860;43.207;-12.512
2870;47.619;-7.644
2880;52.039;6.455
2890;54.098;20.554
2900;54.397;34.654
2910;54.614;50.32
2920;54.713;65.986
2930;55.612;77.203
2940;56.732;88.419
2950;57.852;96.345
2960;58.717;104.27
2970;61.422;109.164
2980;64.023;114.058
2990;66.459;118.952
3000;67.335;121.578
3010;67.625;124.204
3020;67.914;128.763
3030;68.383;133.321
3040;67.412;140.833
3050;66.352;148.345
3060;65.622;152.665
3070;62.812;156.985
3080;60.244;161.05
3090;57.676;162.154
3100;54.887;165.299
3110;49.778;168.796
3120;44.786;172.292
3130;39.794;166.481
3140;34.561;160.67
3150;31.804;158.243
3160;29.047;155.815
3170;27.248;153.463
3180;23.79;156.672
3190;20.332;157.2
3200;16.874;157.646
3210;13.782;157.277
3220;10.541;160.389
3230;7.299;163.501
3240;3.479;163.308
3250;2.886;162.604
3260;2.292;161.901
3270;1.699;158.837
3280;1.023;155.774
3290;-0.892;152.414
3300;-2.808;149.054
3310;-4.041;148.534
3320;-6.508;148.014
3330;-10.014;147.102
3340;-13.52;146.19
3350;-16.84;143.239
3360;-16.44;140.287
3370;-16.04;134.557
3380;-15.64;129.386
3390;-15.716;124.215
3400;-15.712;115.964
3410;-15.708;107.706
3420;-16.51;98.404
3430;-20.353;89.102
3440;-24.196;82.48
3450;-28.149;75.623
3460;-31.992;67.272
3470;-36.794;58.92
3480;-41.597;50.568
3490;-45.683;45.487
3500;-48.888;40.406
3510;-51.614;33.89
3520;-54.65;27.374
3530;-57.396;20.803
3540;-59.382;14.232
3550;-61.651;11.217
3560;-63.92;8.201
3570;-66.492;4.497
3580;-67.425;1.432
3590;-68.13;-1.633
3600;-69.303;-13.156
3610;-68.997;-24.679
3620;-68.643;-32.451
3630;-68.288;-40.223
3640;-67.823;-49.592
3650;-68.09;-58.96
3660;-68.356;-69.225
3670;-68.05;-78.37
3680;-66.903;-86.034
3690;-65.978;-93.189
3700;-65.052;-100.295
3710;-64.037;-106.361
3720;-62.852;-112.428
3730;-61.668;-121.236
3740;-60.483;-129.486
3750;-58.599;-137.735
3760;-57.194;-144.785
3770;-55.79;-152.275
3780;-54.079;-160.488
3790;-51.025;-168.702
3800;-47.971;-179.996
3810;-44.917;-186.57
3820;-43.161;-193.964
3830;-42.006;-201.359
3840;-40.85;-208.753
3850;-39.556;-204.068
3860;-41.662;-199.127
3870;-43.768;-193.779
3880;-43.114;-188.432
3890;-42.13;-180.604
3900;-41.665;-172.928
3910;-41.2;-165.742
3920;-40.244;-158.556
3930;-37.888;-151.25
3940;-35.532;-144.806
3950;-36.175;-138.01
3960;-37.128;-131.214
3970;-37.401;-125.938
3980;-37.674;-116.348
3990;-38.262;-106.757
4000;-39.425;-96.636
4010;-40.588;-86.475
4020;-38.419;-75.301
4030;-35.993;-64.127
4040;-33.567;-53.415
4050;-30.77;-41.343
4060;-27.972;-33.55
4070;-24.45;-25.757
4080;-20.927;-17.964
4090;-18.839;-13.607
4100;-17.902;-12.21
4110;-16.966;-10.661
4120;-13.794;-9.112
4130;-13.383;-7.243
4140;-13.324;-6.734
4150;-11.749;-6.059
4160;-10.174;-5.385
4170;-8.559;-0.71
4180;-7.123;2.254
4190;-7.386;5.342
4200;-4.41;8.43
4210;-1.102;11.519
4220;1.546;11.483
4230;4.194;11.364
4240;7.523;11.246
4250;12.53;11.127
4260;17.537;16.168
4270;18.943;20.486
4280;19.964;24.803
4290;23.037;29.12
4300;25.47;31.797
4310;27.903;33.957
4320;32.123;36.117
4330;36.342;38.277
4340;42.361;40.157
4350;46.286;42.396
4360;50.292;44.428
4370;52.499;46.459
4380;54.706;46.811
4390;56.477;47.004
4400;56.608;47.728
4410;56.739;48.452
4420;60.47;46.457
4430;64.305;44.516
4440;69.459;42.575
4450;75.299;39.062
4460;81.726;34.069
4470;88.432;32.603
4480;95.138;31.137
4490;98.745;29.477
4500;100.521;28.698
4510;102.298;21.905
4520;102.179;15.112
4530;101.819;8.574
4540;100.179;7.036
4550;97.408;6.019
4560;94.637;5.003
4570;89.949;3.986
4580;85.261;3.157
4590;78.301;5.568
4600;73.105;8.91
4610;67.909;12.252
4620;64.273;12.199
4630;60.292;13.505
4640;56.672;14.811
4650;54.611;16.269
4660;52.55;15.981
4670;47.359;14.412
4680;42.167;12.844
4690;34.855;11.276
4700;26.996;10.011
4710;19.13;9.346
4720;8.743;8.681
4730;-1.167;8.017
4740;-8.357;7.593
4750;-15.097;5.33
4760;-21.836;3.066
4770;-26.742;0.803
4780;-31.648;-1.185
4790;-33.713;-8.948
4800;-34.937;-16.71
4810;-36.16;-24.473
4820;-35.183;-32.498
4830;-33.786;-41.003
4840;-30.386;-49.894
4850;-24.666;-58.785
4860;-18.946;-67.669
4870;-14.759;-70.153
4880;-10.571;-73.044
4890;-10.863;-75.935
4900;-12.605;-78.592
4910;-14.72;-76.728
4920;-17.914;-74.865
4930;-21.109;-73.07
4940;-22.494;-71.786
4950;-21.252;-72.582
4960;-20.011;-72.498
4970;-15.939;-72.414
4980;-11.868;-72.109
4990;-8.643;-70.884
5000;-5.855;-68.699
5010;-3.068;-66.514
5020;-2.6;-63.64
5030;-2.029;-61.086
5040;-3.886;-57.811
5050;-5.542;-54.537
5060;-7.199;-51.262
5070;-11.048;-45.403
5080;-14.898;-40.023
5090;-16.548;-34.644
5100;-20.186;-29.265
5110;-24.211;-18.269
5120;-27.916;-10.388
5130;-31.621;-2.506
5140;-31.114;5.375
5150;-32.168;11.808
5160;-33.222;16.957
5170;-32.886;22.106
5180;-32.301;27.255
5190;-30.836;31.846
5200;-32.294;33.116
5210;-33.752;34.414
5220;-34.437;35.712
5230;-33.243;36.775
5240;-31.27;36.919
5250;-29.298;36.182
5260;-27.277;35.652
5270;-23.545;35.343
5280;-19.812;35.354
5290;-16.08;35.366
5300;-12.989;36.577
5310;-9.858;38.208
5320;-6.727;36.4
5330;-3.596;34.592
5340;-3.727;32.743
5350;-2.298;30.73
5360;-0.869;23.996
5370;-0.077;17.262
5380;0.563;10.528
5390;-2.517;4.977
5400;-4.279;0.149
5410;-6.04;-4.679
5420;-7.67;-9.506
5430;-11.741;-14.168
5440;-17.057;-16.59
5450;-22.372;-13.55
5460;-27.392;-10.51
5470;-28.702;-8.043
5480;-31.892;-3.215
5490;-35.083;2.226
5500;-37.57;8.548
5510;-37.897;14.428
5520;-37.063;20.308
5530;-36.23;26.588
5540;-35.349;32.812
5550;-34.388;37.837
5560;-33.466;42.71
5570;-32.979;47.583
5580;-32.761;51.497
5590;-32.503;55.581
5600;-33.681;59.499
5610;-34.859;63.418
5620;-36.203;67.337
5630;-38.146;71.628
5640;-35.99;75.474
5650;-33.834;79.321
5660;-31.679;83.168
5670;-29.463;87.855
5680;-24.808;92.328
5690;-20.153;94.561
5700;-14.953;96.794
5710;-7.513;99.028
5720;-3.513;101.992
5730;0.487;102.072
5740;6.851;102.152
5750;13.215;102.232
5760;17.419;98.73
5770;21.699;95.49
5780;24.539;91.85
5790;27.379;88.21
5800;30.594;84.211
5810;33.996;80.052
5820;32.917;75.894
5830;31.839;72.695
5840;30.596;69.655
5850;29.353;66.615
5860;27.83;62.375
5870;25.908;58.135
5880;24.578;53.84
5890;23.248;49.545
5900;25.233;45.25
5910;27.321;37.034
5920;29.73;29.2
5930;32.138;21.366
5940;38.366;13.531
5950;44.297;7.537
5960;47.988;2.356
5970;51.734;-3.025
5980;55.905;-8.406
5990;57.236;-13.786
6000;58.298;-15.488
6010;59.36;-13.27
6020;59.545;-11.052
6030;61.17;-8.834
6040;62.946;-6.617
6050;65.074;-5.69
6060;65.483;-4.582
6070;70.371;-3.474
6080;75.583;-2.367
6090;81.189;-4.819
6100;84.274;-7.423
6110;87.64;-8.828
6120;90.778;-10.232
6130;93.916;-11.636
6140;94.654;-12.72
6150;92.112;-13.597
6160;89.177;-10.554
6170;86.241;-7.512
6180;84.866;-4.469
6190;80.161;-2.193
6200;75.726;-2.399
6210;71.29;-2.604
6220;67.814;-2.81
6230;63.396;-5.175
6240;58.337;-7.486
6250;53.277;-13.716
6260;48.218;-19.946
6270;43.919;-26.177
6280;39.199;-30.687
6290;34.479;-34.811
6300;29.174;-38.575
6310;25.589;-42.339
6320;22.597;-46.103
6330;19.737;-46.421
6340;15.156;-42.474
6350;13.095;-38.528
6360;11.407;-34.582
6370;7.971;-32.156
6380;4.535;-29.661
6390;3.499;-27.486
6400;2.16;-25.31
6410;-0.259;-23.135
6420;-2.679;-20.96
6430;-6.713;-18.95
6440;-10.861;-16.181
6450;-15.008;-13.411
6460;-19.156;-10.641
6470;-24.195;-7.872
6480;-29.297;-3.225
6490;-34.399;1.422
6500;-39.873;6.069
6510;-45.948;10.716
6520;-52.077;11.868
6530;-58.207;11.299
6540;-63.971;10.731
6550;-67.175;10.163
6560;-69.993;9.594
6570;-72.708;9.061
6580;-72.782;5.487
6590;-70.647;1.913
6600;-68.512;-1.661
6610;-66.308;-5.91
6620;-61.903;-8.909
6630;-57.748;-11.908
6640;-53.468;-14.906
6650;-51.228;-17.905
6660;-47.908;-21.051
6670;-45.36;-24.197
6680;-43.226;-27.343
6690;-43.252;-30.49
6700;-43.279;-33.636
6710;-43.553;-36.989
6720;-43.668;-40.342
6730;-43.822;-43.695
6740;-43.977;-47.048
6750;-43.221;-50.401
6760;-39.545;-53.941
6770;-35.869;-53.84
6780;-32.179;-53.739
6790;-28.537;-53.639
6800;-26.614;-49.501
6810;-24.691;-45.363
6820;-22.81;-41.225
6830;-23.057;-37.087
6840;-23.303;-32.949
6850;-23.709;-28.135
6860;-24.114;-23.321
6870;-25.331;-18.508
6880;-26.548;-13.694
6890;-27.964;-8.88
6900;-28.821;-4.128
6910;-29.974;0.654
6920;-31.154;5.436
6930;-33.095;10.218
6940;-32.756;10.306
6950;-32.851;10.394
6960;-32.781;10.483
6970;-31.55;10.571
6980;-30.32;10.659
6990;-29.448;10.803
7000;-26.737;10.946
7010;-26.345;11.09
7020;-25.953;11.233
7030;-25.241;11.377
7040;-23.89;11.389
7050;-22.538;7.261
7060;-21.269;3.132
7070;-20.234;-0.996
7080;-19.56;-3.857
7090;-18.886;-6.717
7100;-15.486;-9.578
7110;-12.086;-12.439
7120;-8.686;-15.299
7130;-5.92;-17.863
7140;-5.274;-20.428
7150;-3.294;-22.992
7160;-1.334;-25.556
7170;0.026;-28.12
7180;2.146;-30.16
7190;3.97;-27.982
7200;6.166;-25.804
7210;7.961;-23.626
7220;8.175;-20.15
7230;8.41;-16.674
7240;7.924;-13.199
7250;5.599;-9.723
7260;3.087;-6.247
7270;0.472;-2.771
7280;-0.063;0.705
7290;-0.619;4.181
7300;-1.092;7.657
7310;-0.406;11.132
7320;0.681;14.608
7330;1.775;16.058
7340;2.841;17.508
7350;-0.252;18.957
7360;-3.45;17.567
7370;-6.799;15.549
7380;-10.228;13.531
7390;-11.537;11.513
7400;-12.549;9.495
7410;-13.341;7.477
7420;-13.292;5.459
7430;-12.789;3.441
7440;-12.182;1.423
7450;-10.655;-0.594
7460;-8.728;-2.612
7470;-6.684;-6.039
7480;-4.819;-9.465
7490;-1.074;-12.891
7500;2.319;-16.317
7510;5.429;-19.244
7520;8.699;-22.171
7530;9.57;-25.098
7540;10.047;-28.025
7550;10.234;-30.952
7560;8.302;-33.879
7570;6.397;-36.806
7580;4.299;-39.732
7590;1.881;-42.659
7600;1.463;-45.586
7610;1.446;-45.715
7620;1.524;-45.843
7630;3.243;-45.971
7640;4.851;-46.099
7650;6.742;-43.146
7660;9.113;-40.193
7670;11.244;-37.24
7680;13.437;-34.287
7690;15.734;-31.334
7700;13.83;-28.381
7710;11.927;-25.428
7720;10.299;-22.474
7730;12.352;-19.521
7740;13.244;-16.568
7750;13.881;-13.76
7760;14.756;-11.472
7770;15.47;-9.183
7780;16.054;-6.895
7790;16.279;-6.11
7800;14.343;-5.326
7810;13.368;-4.541
7820;12.317;-3.756
7830;11.146;-2.971
7840;10.295;-2.186
7850;9.761;-1.401
7860;9.324;-0.617
7870;9.487;0.168
7880;8.145;0.953
7890;7.203;2.041
7900;5.781;0.69
7910;3.879;-0.662
7920;1.908;-2.014
7930;0.233;-0.843
7940;-1.281;0.328
7950;0.857;1.499
7960;2.553;2.67
7970;5.13;3.841
7980;4.026;5.012
7990;2.557;6.183
8000;1.661;7.354
8010;-0.636;8.526
8020;-3.036;9.697
8030;-4.981;10.868
8040;-7.526;13.156
8050;-7.91;15.444
8060;-8.364;17.732
8070;-9.087;19.41
8080;-8.65;21.087
8090;-8.337;22.764
8100;-8.575;24.441
8110;-7.174;26.119
8120;-6.372;27.796
8130;-5.157;29.473
8140;-4.19;31.15
8150;-1.063;32.828
8160;2.263;34.505
8170;5.583;36.182
8180;10.023;35.44
8190;14.303;34.698
8200;18.239;33.956
8210;22.312;32.964
8220;24.945;31.972
8230;27.564;30.981
8240;30.411;29.989
8250;31.618;28.997
8260;34.105;28.006
8270;36.633;27.014
8280;39.354;26.022
8290;42.076;25.03
8300;44.956;24.039
8310;47.767;23.047
8320;48.978;22.846
8330;49.149;22.644
8340;49.52;22.443
8350;49.243;23.081
8360;46.646;23.81
8370;44.076;24.538
8380;41.065;25.266
8390;40.134;25.995
8400;37.523;26.723
8410;34.746;27.451
8420;34.192;28.179
8430;32.517;28.908
8440;30.788;29.636
8450;29.279;30.364
8460;27.21;30.887
8470;25.701;31.41
8480;24.461;31.932
8490;20.666;30.695
8500;18.512;29.879
8510;16.44;29.062
8520;14.348;28.246
8530;10.535;27.429
8540;7.323;26.612
8550;3.338;25.796
8560;1.913;24.979
8570;2.088;24.163
8580;2.898;23.346
8590;3.673;22.53
8600;1.128;20.115
8610;-0.716;17.699
8620;-2.443;15.284
8630;-6.81;12.869
8640;-13.257;8.476
8650;-20.076;4.083
8660;-26.861;-0.31
8670;-33.846;-4.703
8680;-40.851;-9.097
8690;-47.946;-13.49
8700;-51.841;-17.883
8710;-55.177;-22.276
8720;-58.408;-26.669
8730;-61.702;-31.062
8740;-61.236;-32.764
8750;-60.852;-34.466
8760;-60.407;-36.168
8770;-59.921;-37.87
8780;-57.716;-38.146
8790;-55.483;-38.422
8800;-53.139;-38.698
8810;-54.156;-38.974
8820;-55.021;-39.25
8830;-55.823;-39.526
8840;-57.946;-39.801
8850;-56.749;-40.077
8860;-55.772;-40.353
8870;-54.706;-40.629
8880;-52.12;-41.057
8890;-49.637;-39.644
8900;-47.513;-38.232
8910;-44.989;-36.819
8920;-44.025;-35.039
8930;-42.881;-33.258
8940;-41.331;-31.477
8950;-39.221;-29.697
8960;-36.828;-27.916
8970;-34.048;-26.135
8980;-28.709;-24.354
8990;-24.81;-22.574
9000;-20.621;-20.793
9010;-16.646;-19.012
9020;-15.39;-17.232
9030;-13.942;-17.27
9040;-12.204;-17.309
9050;-11.746;-17.348
9060;-10.488;-17.545
9070;-9.327;-17.742
9080;-7.883;-17.939
9090;-3.759;-18.137
9100;0.083;-18.334
9110;3.414;-18.531
9120;6.865;-18.728
9130;11.436;-18.925
9140;15.903;-19.123
9150;21.799;-19.32
9160;27.294;-19.517
9170;32.513;-19.917
9180;37.408;-20.317
9190;42.503;-20.717
9200;43.839;-16.572
9210;45.057;-12.428
9220;45.601;-8.283
9230;43.586;-4.138
9240;41.93;0.007
9250;40.59;4.152
9260;39.051;8.297
9270;40.495;12.441
9280;41.732;16.586
9290;43.49;20.731
9300;46.527;24.876
9310;49.468;29.565
9320;52.194;34.255
9330;55.281;38.945
9340;56.608;37.931
9350;58.087;36.917
9360;59.206;35.903
9370;60.204;34.89
9380;60.906;33.876
9390;61.477;32.862
9400;60.208;31.848
9410;59.381;30.834
9420;58.305;29.821
9430;56.869;28.807
9440;55.233;27.793
9450;53.025;22.359
9460;51.223;16.924
9470;49.582;11.49
9480;47.486;6.935
9490;45.12;2.063
9500;44.835;-2.808
9510;44.749;-7.68
9520;44.932;-12.552
9530;44.93;-17.423
9540;42.047;-22.295
9550;39.716;-27.167
9560;37.295;-32.039
9570;32.634;-36.91
9580;27.614;-41.782
9590;22.841;-41.123
9600;17.924;-40.463
9610;14.607;-39.804
9620;11.297;-39.145
9630;7.959;-33.786
9640;2.941;-28.428
9650;-1.437;-23.069
9660;-5.953;-17.71
9670;-10.138;-12.352
9680;-15.603;-6.993
9690;-21.295;-1.634
9700;-26.567;3.724
9710;-28.879;9.083
9720;-30.67;14.441
9730;-32.655;19.044
9740;-34.668;23.647
9750;-40.08;28.25
9760;-45.423;32.852
9770;-51.105;35.705
9780;-54.906;38.557
9790;-56.348;41.41
9800;-57.141;44.262
9810;-58.244;47.115
9820;-57.148;49.967
9830;-55.61;52.819
9840;-54.348;55.672
9850;-54.926;58.524
9860;-56.743;61.377
9870;-59.023;64.567
9880;-60.207;63.237
9890;-59.71;61.908
9900;-59.434;60.578
9910;-58.793;57.214
9920;-56.912;53.85
9930;-53.39;50.485
9940;-48.945;47.121
9950;-45.379;43.757
9960;-44.774;40.393
9970;-44.148;37.029
9980;-43.218;33.665
9990;-41.528;30.301
10000;-38.312;26.937
10010;-35.254;23.607
10020;-30.756;22.117
10030;-28.138;20.628
10040;-25.527;19.138
10050;-22.916;18.527
10060;-22.665;17.916
10070;-22.236;17.305
10080;-21.807;16.694
10090;-19.818;16.083
10100;-15.892;15.382
10110;-12.001;14.681
10120;-7.897;13.981
10130;-3.912;13.28
10140;0.163;12.579
10150;4.472;11.879
10160;9.301;13.178
10170;12.89;14.477
10180;15.982;16.08
10190;19.074;15.992
10200;23.273;15.903
10210;27.41;15.815
10220;31.546;15.727
10230;35.905;15.639
10240;39.503;15.55
10250;42.992;15.462
10260;46.68;15.526
10270;47.008;15.589
10280;47.178;15.652
10290;47.348;15.716
10300;45.077;15.659
10310;45.25;15.603
10320;45.332;15.546
10330;45.415;14.921
10340;44.132;13.738
10350;43.208;12.554
10360;42.284;11.371
10370;43.168;10.188
10380;42.972;9.004
10390;42.301;7.821
10400;41.629;6.637
10410;42.237;5.454
10420;42.514;3.822
10430;42.792;2.19
10440;44.669;1.319
10450;45.375;0.447
10460;46.295;-0.425
10470;46.946;-3.257
10480;48.037;-5.309
10490;48.839;-7.361
10500;49.75;-9.517
10510;48.542;-11.673
10520;49.254;-13.829
10530;49.269;-15.985
10540;45.284;-18.141
10550;43.739;-20.297
10560;42.457;-22.452
10570;41.174;-24.608
10580;38.359;-26.451
10590;35.383;-28.294
10600;32.181;-30.137
10610;30.284;-32.179
10620;26.428;-34.539
10630;22.895;-36.899
10640;19.727;-39.259
10650;16.559;-41.619
10660;11.577;-43.324
10670;5.108;-45.029
10680;-1.361;-46.734
10690;-9.444;-48.439
10700;-18.404;-49.623
10710;-27.364;-50.808
10720;-37.937;-50.033
10730;-48.902;-49.258
10740;-59.716;-48.717
10750;-71.89;-48.177
10760;-81.943;-47.981
10770;-91.618;-47.785
10780;-98.052;-49.349
10790;-100.487;-50.913
10800;-99.423;-52.477
10810;-98.36;-54.041
10820;-97.297;-55.606
10830;-94.654;-57.521
