timepoints (min);16: frq7+.1;17: frq7+.2;18: frq7+.3;19: frq1-.1;20: frq1-.2;21: frq1-.3;22: frq7-.1;23: frq7-.2;24: frq7-.3;25: frq9+.1;26: frq9+.2;27: frq9+.3;28: frq10+.1;29: frq10+.2;30: frq10+.3
600;-299.806;-275.1;-367.748;5.077;-316.232;-437.098;-294.315;-115.322;-236.164;-211.105;-358.321;-162.277;-183.781;-125.158;-165.238
610;-288.716;-267.521;-354.666;14.985;-305.68;-419.402;-285.653;-112.058;-233.077;-190.72;-332.649;-139.958;-173.805;-118.61;-156.61
620;-278.573;-261.467;-344.107;22.987;-296.613;-403.973;-276.68;-109.48;-230.947;-174.72;-308.04;-120.627;-161.44;-112.04;-149.187
630;-268.516;-255.974;-334.036;30.803;-284.161;-388.786;-269.454;-108.424;-229.599;-159.02;-286.664;-103.227;-150.586;-105.25;-142.059
640;-257.832;-251.479;-326.005;37.538;-273.091;-373.736;-261.841;-107.718;-229.134;-145.426;-267.767;-87.845;-141.102;-99.278;-134.684
650;-247.692;-247.816;-319.487;44.098;-257.923;-360.547;-255.496;-107.517;-228.325;-132.141;-250.795;-77.504;-133.372;-93.778;-128.167
660;-239.877;-244.248;-312.539;49.385;-240.566;-346.281;-251.17;-107.726;-227.947;-116.975;-234.306;-68.257;-127.051;-89.386;-121.921
670;-232.9;-240.587;-305.188;50.85;-225.025;-333.412;-247.463;-108.1;-226.025;-103.662;-219.762;-59.712;-121.425;-83.587;-118.275
680;-227.362;-237.06;-297.326;57.166;-209.73;-319.097;-244.162;-108.035;-224.317;-91.981;-205.621;-52.023;-116.905;-78.37;-115.145
690;-222.624;-234.171;-289.213;63.455;-195.259;-306.031;-240.972;-108.108;-222.788;-83.15;-193.889;-47.416;-111.075;-74.218;-112.36
700;-219.358;-231.961;-282.309;69.178;-178.859;-292.66;-237.893;-106.642;-221.454;-75.74;-183.271;-43.248;-106.067;-70.367;-109.696
710;-216.637;-229.756;-276.429;71.738;-163.738;-280.238;-235.238;-106.506;-221.435;-69.071;-175.065;-39.262;-101.018;-66.887;-107.298
720;-212.927;-227.595;-270.473;75.72;-148.146;-268.48;-232.821;-106.546;-222.252;-62.696;-167.708;-35.584;-96.642;-63.922;-105.125
730;-184.385;-207.278;-246.973;93.282;-119.86;-242.66;-219.595;-101.969;-211.703;-26.275;-138.589;0.542;-87.117;-56.488;-96.737
740;-157.486;-187.719;-227.065;110.347;-87.103;-216.769;-206.219;-97.324;-201.102;10.063;-109.365;36.642;-78.038;-48.713;-88.273
750;-139.823;-176.918;-207.211;121.391;-56.081;-189.629;-191.99;-91.899;-192.961;31.742;-80.427;72.252;-69.124;-40.822;-79.799
760;-126.649;-169.034;-186.92;126.572;-25.187;-162.503;-178.979;-89.568;-184.754;46.133;-49.958;80.267;-60.155;-32.56;-71.31
770;-119.922;-163.498;-171.587;128.856;-1.418;-138.311;-164.518;-86.413;-181.336;60.304;-26.733;85.78;-51.138;-24.498;-63.402
780;-111.932;-159.515;-159.89;131.172;22.351;-114.123;-153.112;-84.887;-177.86;68.161;-3.686;87.589;-41.856;-16.965;-54.718
790;-106.765;-154.154;-150.851;132.268;48.836;-87.767;-141.827;-83.303;-176.076;75.017;9.975;89.058;-32.041;-9.908;-46.029
800;-103.106;-151.007;-142.304;133.49;75.085;-59.291;-134.68;-82.365;-174.243;80.653;17.855;86.754;-22.267;-4.931;-36.638
810;-99.147;-150.118;-132.983;131.943;100.657;-33.776;-127.411;-82.335;-172.295;84.997;25.403;84.362;-12.378;0.488;-31.087
820;-95.356;-148.537;-125.276;128.053;124.432;-9.998;-122.981;-82.497;-170.307;85.787;31.577;81.598;-5.794;4.156;-27.368
830;-92.255;-146.588;-119.938;123.813;148.093;13.777;-119.823;-83.442;-167.362;87.942;36.713;77.393;0.89;7.149;-24.854
840;-89.035;-143.613;-115.845;120.319;169.686;33.045;-118.099;-84.341;-163.543;86.955;38.605;72.896;4.52;9.149;-22.203
850;-84.831;-140.596;-111.827;117.422;191.387;52.306;-116.332;-84.103;-160.196;86.612;38.898;68.194;6.2;11.004;-19.746
860;-79.584;-137.568;-105.444;114.173;211.131;68.781;-114.602;-84.342;-158.981;84.281;38.457;63.725;7.749;12.822;-17.16
870;-73.74;-134.78;-96.31;109.51;230.87;86.13;-113.49;-83.45;-157.59;82.09;36.45;59.62;7.13;14.68;-14.87
880;-67.38;-132.306;-86.56;104.989;248.773;102.443;-111.507;-82.044;-155.215;78.594;34.782;52.421;6.362;16.159;-12.183
890;-62.314;-128.503;-76.466;102.181;266.613;117.875;-109.908;-80.365;-152.012;75.426;32.58;45.209;5.684;17.549;-10.168
900;-58.263;-124.359;-66.386;98.447;278.821;133.294;-108.252;-78.407;-148.672;72.624;30.375;37.943;5.572;18.613;-7.245
910;-52.857;-120.577;-57.961;95.523;288.577;146.497;-105.598;-76.42;-144.969;66.806;27.11;29.992;5.587;19.16;-4.773
920;-47.251;-117.082;-50.541;94.261;295.503;159.69;-103.611;-75.531;-141.177;64.202;22.701;21.922;5.579;18.844;-0.971
930;-40.691;-112.998;-43.836;87.997;302.728;170.995;-101.566;-74.775;-136.98;60.577;17.341;13.965;6.185;18.719;1.659
940;-33.466;-106.424;-37.401;80.705;309.647;182.296;-98.953;-74.51;-132.403;58.335;13.326;8.167;6.64;18.996;4.317
950;-25.568;-98.138;-30.991;73.829;313.907;192.408;-96.653;-75.665;-127.828;55.22;9.53;2.367;7.113;19.113;6.863
960;-17.385;-90.265;-25.042;68.974;317.55;202.476;-94.163;-76.794;-122.498;51.326;8.195;-1.081;7.166;18.947;10.025
970;-9.331;-81.682;-19.831;61.531;318.065;212.576;-90.349;-77.302;-117.167;47.011;7.482;-4.535;7.665;18.591;14.195
980;-2.242;-71.353;-13.217;52.397;318.24;220.82;-87.259;-77.028;-112.042;41.826;9.186;-5.568;8.189;18.475;16.242
990;4.664;-60.429;-5.331;43.382;311.252;229.06;-82.768;-75.701;-106.916;36.538;10.205;-6.604;9.229;17.674;18.137
1000;11.154;-49.481;4.299;35.457;301.556;235.441;-78.997;-75.197;-100.844;32.163;9.168;-5.8;10.515;17.927;20.149
1010;17.839;-38.671;13.595;28.646;291.34;241.819;-72.547;-74.675;-93.693;28.122;6.629;-4.993;11.769;17.055;22.306
1020;25.972;-28.619;22.562;22.534;283.936;247.355;-67.532;-74.214;-85.423;23.903;4.221;-0.466;13.12;16.508;25.11
1030;34.13;-19.046;31.639;15.937;276.224;250.809;-60.878;-73.74;-76.917;20.92;2.468;4.068;14.27;16.693;28.03
1040;41.923;-11.103;41.01;10.679;261.761;247.929;-54.175;-72.295;-68.171;15.826;2.507;8.963;14.582;17.401;31.2
1050;50.225;-3.089;49.688;5.467;247.331;239.799;-46.23;-70.001;-59.153;10.388;2.478;13.861;14.768;17.453;33.775
1060;58.993;5.561;56.93;1.395;231.028;231.675;-38.364;-66.777;-50.949;4.755;2.067;16.012;14.451;17.667;35.74
1070;67.732;13.883;63.463;-3.683;214.573;221.887;-30.197;-63.238;-41.47;-1.223;0.018;18.167;15.338;17.845;37.415
1080;76.497;22.047;71.19;-10.714;197.169;212.099;-19.992;-59.692;-33.938;-9.514;-2.608;19.888;16.214;17.586;38.582
1090;85.474;30.935;79.73;-18.353;179.073;203.913;-9.734;-55.836;-24.969;-17.196;-5.377;21.612;17.757;17.929;39.593
1100;93.581;39.371;87.763;-24.956;160.989;195.967;0.92;-53.017;-15.985;-24.071;-6.922;23.396;19.265;18.113;41.04
1110;100.425;47.302;93.512;-30.845;143.444;188.694;11.61;-50.194;-2.354;-27.047;-5.162;22.661;20.754;18.312;43.154
1120;106.16;55.624;97.36;-34.296;125.616;180.304;23.896;-48.088;11.272;-27.768;-3.304;22.616;22.184;18.504;45.472
1130;109.546;64.077;100.847;-37.675;106.686;171.957;35.164;-45.979;25.062;-28.476;-0.83;25.609;23.461;18.353;47.074
1140;111.705;72.406;104.531;-43.638;87.513;164.093;48.592;-43.713;38.846;-30.242;1.945;28.087;24.839;18.563;48.337
1150;113.755;80.509;107.812;-49.541;69.601;156.232;61.871;-41.441;52.022;-34.745;5.053;32.761;25.945;19.11;48.643
1160;115.632;89.526;111.375;-56.294;51.91;148.933;75.11;-38.006;65.189;-39.233;8.257;37.296;26.977;20.123;48.278
1170;116.569;98.703;113.352;-63.749;36.237;141.645;89.031;-33.486;77.554;-48.026;12.032;41.345;28.177;20.578;47.518
1180;117.623;107.085;115.643;-71.084;18.972;132.492;103.052;-27.802;91.787;-53.838;15.926;48.401;29.002;20.494;47.788
1190;118.671;112.592;118.523;-78.191;0.826;120.997;116.513;-21.382;105.752;-59.637;19.427;55.289;28.669;20.302;48.06
1200;118.384;116.358;122.071;-84.586;-16.486;109.835;130.139;-14.961;121.305;-64.32;22.509;61.852;28.203;19.75;48.576
1210;117.443;120.58;126.333;-90.261;-33.287;97.18;141.722;-7.699;136.867;-67.286;24.311;64.21;28.372;19.521;47.444
1220;116.359;124.73;130.754;-95.327;-47.462;84.538;152.108;-0.919;152.098;-70.24;25.603;66.964;28.545;19.33;45.317
1230;114.938;127.868;135.002;-99.668;-61.958;72.515;163.29;6.541;166.982;-72.342;26.911;64.669;28.788;19.09;44.956
1240;113.691;131.326;139.499;-102.819;-73.465;60.501;173.279;13.164;180.292;-74.034;29.869;62.984;28.79;19.344;44.267
1250;113.349;134.955;143.628;-104.491;-84.914;49.26;183.581;19.785;192.092;-75.638;31.926;61.161;28.837;18.998;43.461
1260;114.071;137.552;148.178;-106.368;-97.335;37.986;191.346;27.26;202.795;-75.668;33.829;59.413;29.003;19.657;42.378
1270;114.476;139.757;152.426;-105.657;-108.233;27.334;198.823;34.291;213.696;-73.947;36.439;57.446;29.276;20.329;42.411
1280;113.465;141.972;154.276;-102.208;-119.298;17.597;204.849;40.305;223.638;-72.045;39.258;55.354;29.631;20.923;42.56
1290;111.322;145.132;153.586;-100.541;-128.576;7.863;209.503;45.471;233.56;-66.253;40.362;53.245;30.307;21.355;42.508
1300;109.645;149.197;152.145;-100.37;-137.926;1.683;213.039;50.763;242.529;-57.115;41.665;50.805;31.789;22.416;42.261
1310;108.629;155.156;151.75;-100.904;-145.129;-4.498;216.562;58.805;251.355;-47.652;44.05;48.057;33.076;23.112;41.285
1320;108.244;160.28;152.171;-100.717;-151.932;-9.285;219.659;66.928;261.084;-37.948;46.793;45.303;33.406;23.901;40.63
1330;103.028;159.652;147.21;-101.148;-161.021;-18.106;218.117;73.483;267.356;-33.619;44.879;36.132;32.108;23.923;37.764
1340;98.623;158.931;142.563;-102.138;-167.909;-26.39;216.255;79.957;271.523;-29.401;42.779;26.354;30.794;23.702;35.19
1350;95.96;160.063;138.286;-103.164;-174.446;-33.617;213.924;86.83;273.96;-25.694;41.297;14.866;29.022;23.385;32.094
1360;92.888;161.326;134.281;-103.503;-179.822;-40.843;211.719;94.248;273.899;-23.124;37.448;8.13;27.25;23.054;29.277
1370;90.794;162.065;131.923;-104.874;-184.792;-46.051;207.913;101.432;273.561;-21.832;34.855;2.568;25.302;21.763;26.514
1380;88.821;163.08;130.033;-107.953;-190.099;-51.259;203.738;108.636;272.143;-18.4;29.861;-2.228;23.334;19.993;21.961
1390;89.483;162.412;127.932;-111.022;-195.269;-55.789;197.403;115.28;270.32;-15.425;26.139;-4.732;21.276;17.959;17.848
1400;91.948;161.132;126.425;-113.498;-199.12;-60.319;192.614;121.308;268.52;-11.33;23.53;-6.589;19.618;16.676;13.389
1410;94.342;159.36;125.542;-115.946;-202.35;-65.153;187.892;126.381;265.872;-8.633;22.24;-8.068;18.792;15.513;11.207
1420;97.658;158.186;126.39;-117.055;-204.324;-70.69;183.668;131.323;262.69;-4.458;21.452;-9.863;18.434;14.39;9.794
1430;100.634;158.963;128.047;-116.563;-205.901;-75.026;180.629;135.342;257.102;-2.083;22.761;-14.567;17.917;13.768;8.684
1440;102.823;160.021;128.914;-114.299;-208.028;-77.345;177.804;139.361;251.721;1.468;24.491;-19.222;17.081;13.003;7.694
1450;105.726;161.582;129.662;-112.523;-211.495;-79.663;174.979;143.174;244.025;5.101;26.981;-23.09;16.59;12.357;6.31
1460;109.701;162.975;129.739;-111.368;-214.777;-80.103;174.119;146.356;236.363;8.219;29.288;-23.35;16.275;11.412;5.786
1470;113.223;165.015;128.968;-110.127;-219.218;-80.371;171.611;148.287;228.56;9.686;31.83;-25.091;16.119;10.888;5.648
1480;117.234;167.445;128.161;-109.703;-222.852;-81.246;168.255;149.669;220.757;12.188;33.188;-25.07;15.866;10.513;5.281
1490;120.782;168.44;126.103;-109.612;-226.708;-82.906;162.517;151.051;213.299;14.014;33.527;-25.27;15.206;10.338;5.499
1500;123.978;169.69;123.101;-111.457;-229.921;-85.327;156.459;152.018;205.986;17.179;33.852;-26.866;14.004;9.886;5.957
1510;126.577;171.694;119.956;-113.823;-231.273;-87.217;149.469;152.345;197.233;19.255;34.247;-25.662;12.734;9.257;6.484
1520;129.989;174.444;117.119;-118.33;-233.425;-89.106;142.745;152.782;188.563;20.403;35.334;-25.959;11.652;8.492;5.843
1530;134.066;176.87;116.345;-122.858;-234.612;-88.25;135.168;154.377;178.846;21.989;36.819;-26.542;11.036;7.817;4.768
1540;137.93;177.459;118.515;-125.712;-233.029;-87.262;129.021;155.971;168.403;20.236;38.219;-27.683;10.668;6.712;3.552
1550;139.961;177.84;122.246;-126.985;-230.963;-86.04;122.928;157.473;158.534;16.726;38.814;-28.823;9.379;5.15;2.426
1560;140.433;178.219;125.436;-128.188;-226.312;-85.004;116.07;155.295;149.025;13.404;38.793;-28.53;8.219;3.492;1.946
1570;138.625;178.706;128.745;-127.717;-221.137;-83.128;109.59;152.59;137.316;10.855;38.052;-29.029;7.197;1.774;1.404
1580;136.066;178.561;131.388;-127.44;-214.081;-80.738;102.582;149.241;125.897;9.306;36.905;-25.537;6.288;-0.066;1.934
1590;133.775;178.286;132.526;-126.299;-205.985;-78.028;95.859;145.212;114.309;9.433;36.699;-22.044;5.623;-1.546;2.226
1600;130.366;178.103;132.652;-125.528;-196.906;-75.873;88.928;140.874;104.799;11.087;36.866;-15.65;5.297;-2.331;2.559
1610;127.357;178.153;133.051;-124.484;-187.804;-73.601;82.037;136.537;95.288;12.953;36.683;-9.524;4.79;-2.764;2.157
1620;124.469;178.01;133.526;-123.429;-178.048;-72.029;75.623;131.217;85.708;13.458;36.034;-4.037;3.804;-2.852;1.757
1630;121.539;176.342;133.48;-121.45;-166.692;-70.298;70.29;126.345;76.182;12.746;37.172;1.146;2.159;-2.488;2.786
1640;117.897;175.494;133.927;-120.108;-154.716;-66.812;65.428;120.913;66.33;13.059;37.701;3.124;0.575;-2.179;3.505
1650;113.88;174.452;134.247;-118.61;-143.579;-62.39;59.626;115.994;56.553;14.639;38.243;5.061;-0.705;-2.862;4.59
1660;108.41;172.52;134.561;-115.567;-132.567;-58.018;53.839;111.007;48.542;18.084;36.954;7.657;-2.143;-3.203;4.865
1670;102.526;168.44;135.259;-110.633;-120.92;-54.054;46.625;105.658;40.531;21.992;39.698;10.204;-3.458;-3.625;5.019
1680;96.872;160.986;134.785;-106.126;-109.287;-50.062;37.97;99.92;34.339;24.372;40.286;12.495;-4.345;-4.268;5.211
1690;91.288;152.932;133.703;-100.794;-95.989;-45.797;29.034;93.102;28.217;25.737;41.673;15.076;-4.79;-4.887;5.31
1700;86.723;145.175;131.185;-93.039;-82.538;-41.594;19.968;86.588;22.854;26.337;42.435;16.617;-5.215;-5.341;5.45
1710;82.389;137.714;129.343;-84.148;-68.789;-36.97;11.088;80.239;16.437;28.932;42.13;18.785;-6.197;-5.499;5.734
1720;78.084;130.044;127.719;-71.985;-53.302;-32.241;4.014;75.141;10.516;32.719;41.777;21.435;-6.386;-5.101;5.611
1730;73.259;122.08;125.262;-58.661;-37.65;-27.332;-1.994;70.022;4.52;35.585;41.463;23.505;-6.548;-4.89;6.524
1740;69.321;115.24;122.764;-43.201;-20.811;-21.03;-5.283;65.785;-0.281;38.59;40.683;25.135;-6.869;-4.886;6.957
1750;65.103;107.404;120.215;-31.862;-4.51;-14.783;-7.852;61.735;-5.966;41.003;40.997;26.317;-6.324;-4.879;7.412
1760;60.703;99.575;116.978;-17.086;10.67;-6.665;-9.586;57.451;-10.148;43.135;40.879;23.153;-5.952;-4.868;6.87
1770;56.004;91.394;112.908;-0.439;25.196;1.295;-11.437;52.781;-15.534;45.578;39.102;20.072;-6.539;-4.436;5.888
1780;51.317;84.331;108.674;16.47;41.077;10.916;-12.997;48.097;-19.15;47.349;35.851;16.957;-7.727;-3.69;4.899
1790;47.062;79.461;103.593;33.874;60.519;20.537;-14.461;42.203;-22.746;50.589;32.628;14.505;-8.549;-2.708;4.08
1800;42.359;75.106;97.568;49.839;80.153;26.966;-16.832;36.726;-26.342;54.837;31.245;12.546;-8.825;-1.794;4.121
1810;37.083;69.284;91.95;66.872;94.628;35.448;-18.334;30.67;-29.854;57.359;30.743;11.703;-8.888;-0.839;4.552
1820;33.73;62.69;85.225;82.737;108.957;43.567;-20.288;25.218;-33.393;59.524;30.498;8.804;-8.641;-0.312;5.168
1830;30.092;56.221;76.85;96.079;123.625;50.692;-21.625;19.966;-38.469;62.331;29.957;7.201;-9.143;0.495;5.167
1840;25.354;49.321;69.668;108.499;137.837;57.052;-23.818;15.305;-43.538;65.512;28.397;2.164;-9.483;0.354;4.565
1850;21.343;41.339;62.945;119.68;151.839;63.343;-25.651;10.63;-49.084;67.807;26.393;-4.099;-9.822;-0.046;3.993
1860;17.621;32.665;54.713;131.829;165.771;69.635;-27.862;4.57;-54.444;69.633;24.417;-10.772;-10.36;-2.343;4.484
1870;12.564;24.512;44.823;141.541;177.807;75.113;-30.233;-0.295;-60.126;71.716;22.635;-18.076;-10.734;-4.281;3.661
1880;7.766;17.97;35.749;149.334;189.372;79.393;-33.455;-6.502;-66.607;72.599;20.469;-25.055;-10.339;-5.959;2.247
1890;3.037;11.428;26.654;157.393;200.386;82.272;-37.28;-12.004;-72.128;73.481;19.268;-30.713;-10;-7.463;1.061
1900;-2.193;5.684;17.852;164.193;212.032;82.866;-41.651;-18.232;-77.102;71.382;16.946;-35.102;-9.828;-8.971;0.04
1910;-6.447;-1.931;8.178;169.579;223.443;83.274;-46.112;-24.425;-81.921;67.403;14.044;-38.404;-10.593;-11.069;-0.588
1920;-11.182;-10.101;-2.259;172.244;231.934;83.252;-49.327;-30.818;-86.589;63.548;7.69;-41.706;-11.228;-12.305;-1.137
1930;-16.708;-17.359;-12.77;174.505;238.206;83.23;-52.043;-37.291;-92.297;59.662;1.28;-46.074;-12.67;-13.617;-1.848
1940;-22.037;-23.621;-22.477;175.429;243.218;82.586;-54.582;-42.67;-98;56.823;-6.25;-46.619;-13.839;-14.241;-2.455
1950;-27.553;-30.679;-30.159;174.655;248.164;81.663;-56.652;-47.679;-103.596;54.123;-13.135;-46.03;-13.967;-14.368;-2.546
1960;-33.796;-38.206;-37.75;172.803;252.392;80.101;-58.727;-52.687;-107.345;49.943;-18.559;-45.441;-14.215;-14.425;-2.455
1970;-40.359;-45.95;-44.807;167.275;256.259;79.073;-60.257;-56.135;-110.84;48.315;-24.099;-45.092;-16.037;-14.59;-3.646
1980;-46.917;-52.903;-51.663;161.794;261.859;78.246;-63.386;-60.368;-113.923;46.77;-28.138;-45.8;-16.359;-15.123;-4.934
1990;-54.73;-59.204;-59.829;154.097;266.105;78.359;-66.206;-65.345;-116.486;46.821;-30.363;-45.937;-15.908;-15.44;-5.818
2000;-62.752;-64.337;-68.85;151.308;270.48;78.472;-69.12;-69.768;-117.495;45.967;-33.332;-46.073;-15.891;-15.338;-6.658
2010;-70.272;-69.538;-77.752;144.928;273.007;77.883;-72.201;-73.826;-118.491;44.415;-35.862;-45.608;-15.712;-15.35;-6.923
2020;-78.328;-74.939;-86.232;136.586;275.396;78.174;-75.352;-77.124;-117.837;40.83;-37.673;-42.792;-14.374;-14.822;-6.67
2030;-87.154;-80.899;-94.03;128.12;273.203;75.709;-77.902;-80.012;-117.207;37.582;-37.457;-38.102;-12.785;-15.262;-6.85
2040;-95.743;-87.537;-100.513;117.952;266.215;73.052;-80.24;-81.919;-117.03;34.039;-36.172;-33.412;-11.154;-15.833;-7.001
2050;-103.857;-94.636;-107.69;108.539;258.353;73.356;-81.67;-83.785;-116.578;29.125;-35.531;-31.094;-10.447;-16.239;-7.764
2060;-110.971;-101.742;-116.262;97.666;252.302;68.786;-83.012;-85.059;-116.825;24.77;-34.41;-32.487;-9.865;-16.672;-9.007
2070;-118.622;-107.804;-123.954;85.61;246.43;63.217;-83.619;-86.734;-117.095;20.469;-33.087;-31.72;-9.255;-16.614;-10.252
2080;-124.977;-114.074;-129.452;75.952;236.759;58.574;-83.843;-89.559;-116.008;16.588;-32.217;-33.68;-7.328;-16.632;-11.305
2090;-129.663;-119.949;-133.295;65.105;227.076;53.771;-83.786;-92.192;-115.39;10.247;-31.236;-31.622;-5.926;-15.943;-11.993
2100;-133.433;-123.996;-135.708;54.712;217.553;49.999;-83.764;-94.665;-113.881;4.146;-29.635;-30.269;-4.87;-15.317;-12.419
2110;-136.663;-126.652;-136.494;42.528;208.483;47.265;-82.702;-95.931;-112.4;-1.534;-27.332;-28.396;-3.175;-13.069;-13.877
2120;-139.029;-129.721;-135.548;33.934;200.069;44.851;-81.512;-96.677;-108.679;-6.015;-23.274;-26.487;-1.554;-11.647;-13.977
2130;-141.128;-133.251;-135.16;26.954;189.615;41.502;-79.181;-95.724;-103.233;-9.537;-18.723;-25.801;-0.081;-10.588;-13.415
2140;-143.503;-137.281;-136.67;21.342;177.891;37.393;-77.484;-95.323;-98.043;-12.768;-14.145;-25.117;1.546;-9.563;-12.377
2150;-145.332;-142.494;-139.03;16.981;165.51;34.742;-75.165;-93.961;-93.549;-14.95;-8.599;-26.233;2.886;-8.47;-10.956
2160;-146.923;-145.681;-141.648;12.357;152.317;33.201;-73.309;-92.359;-90.852;-15.651;-1.644;-28.706;4.716;-7.291;-9.939
2170;-147.768;-147.055;-143.579;8.334;139.439;32.608;-71.008;-90.196;-87.956;-17.052;5.414;-26.552;6.619;-6.806;-8.625
2180;-148.073;-147.429;-145.051;4.487;128.531;29.938;-69.131;-88.138;-84.659;-17.152;12.432;-23.713;8.09;-6.272;-8.59
2190;-148.905;-147.961;-147.185;-1.746;116.131;27.772;-67.109;-86.183;-81.004;-19.659;19.417;-24.395;9.254;-6.097;-8.981
2200;-149.719;-148.309;-150.455;-7.843;103.611;23.828;-65.553;-84.313;-77.908;-20.062;24.378;-26.277;8.179;-5.703;-9.885
2210;-151.479;-149.061;-154.252;-14.139;89.379;19.203;-64.421;-82.691;-75.611;-21.472;29.588;-26.538;8.095;-4.709;-11.327
2220;-153.243;-150.788;-157.505;-21.476;72.537;13.753;-63.728;-82.469;-74.345;-24.563;34.477;-25.077;8.83;-3.77;-11.241
2230;-155.292;-153.141;-160.429;-29.261;53.706;7.335;-62.695;-82.232;-73.957;-28.141;39.234;-20.6;8.412;-3.179;-12.023
2240;-157.215;-156.047;-162.457;-37.237;34.498;-0.458;-61.818;-82.381;-74.462;-33.465;42.876;-14.541;7.628;-2.429;-12.131
2250;-158.56;-160.277;-164.119;-45.527;14.636;-9.315;-61.415;-83.979;-75.967;-38.727;47.186;-8.497;7.361;-1.592;-11.709
2260;-160.057;-164.68;-165.761;-53.865;-1.546;-20.223;-61.121;-85.585;-78.283;-43.528;51.204;-1.68;6.905;-0.727;-11.036
