timepoints (min);01: bdA+.1;02: bdA+.2;03: bdA+.3;04: cybdIm1+.1;05: cybdIm1+.2;06: cybdIm1+.3;07: bdA-.1;08: bdA-.2;09: bdA-.3;10: crybdIm1-.1;11: crybdIm1-.2;12: crybdIm1-.3;13: frq1+.1;14: frq1+.2;15: frq1+.3
740;-90.247;-164.28;-206.458;-158.816;-187.386;-173.962;-93.511;-31.487;-70.67;-173.058;31.093;-123.194;-7.492;-125.297;-31.667
750;-80.124;-158.465;-196.18;-164.054;-181.015;-169.512;-85.956;-29.137;-63.081;-162.902;35.959;-112.836;0.564;-115.222;-31.147
760;-68.44;-150.107;-186.827;-166.947;-176.227;-164.133;-78.76;-27;-55.107;-154.093;39.933;-103.373;6.693;-106.04;-30.347
770;-57.405;-138.888;-178.895;-169.332;-172.089;-160.155;-72.724;-23.51;-45.474;-147.632;43.447;-95.105;9.467;-97.711;-30.507
780;-46.115;-128.808;-170.973;-170.565;-167.147;-155.661;-66.695;-20.34;-36.966;-141.917;47.17;-87.377;13.147;-88.608;-31.524
790;-35.239;-117.5;-162.064;-171.201;-162.218;-148.222;-61.308;-17.427;-32.12;-133.872;50.509;-81.607;18.893;-78.496;-32.735
800;-23.474;-103.692;-150.919;-170.598;-156.594;-139.616;-54.469;-14.759;-27.83;-124.839;53.701;-76.418;25.137;-68.006;-33.039
810;-11.913;-89.275;-139.237;-168.075;-150.025;-130.987;-46.625;-12.263;-25.325;-116.7;56.612;-72.35;31.388;-55.938;-31.55
820;-2.578;-77.226;-128.296;-164.372;-143.497;-122.002;-39.702;-9.966;-21.323;-107.439;58.139;-68.61;38.573;-41.386;-30.275
830;6.401;-65.153;-116.292;-160.827;-134.48;-112.564;-34.402;-7.432;-17.702;-98.998;59.56;-63.086;47.57;-27.078;-29.249
840;15.603;-53.172;-102.642;-160.288;-124.874;-101.976;-29.558;-5.084;-14.493;-88.467;61.128;-58.037;55.75;-12.636;-28.301
850;24.214;-42.03;-89.851;-160.554;-117.804;-89.137;-25.863;-3.613;-11.577;-80.536;62.607;-52.631;65.155;0.107;-26.506
860;30.172;-31.741;-78.911;-160.981;-111.146;-76.692;-22.468;-2.228;-10.534;-73.179;61.567;-49.518;74.294;11.348;-23.762
870;49.003;-9.63;-54.24;-157.509;-98.224;-51.352;-9.446;4.005;-3.38;-53.419;62.254;-31.865;95.638;35.327;-15.227
880;69.95;12.86;-29.044;-153.2;-84.25;-24.995;5.305;10.219;3.763;-34.68;62.925;-13.828;116.32;58.991;-6.08
890;87.612;31.553;-11.347;-152.644;-69.45;-4.028;17.515;17.182;11.188;-20.736;63.58;-4.678;132.225;77.392;-0.204
900;101.022;48.294;3.24;-155.064;-55.198;13.214;28.156;19.886;18.599;-6.475;63.018;4.898;142.635;91.695;3.038
910;109.856;67.044;16.762;-154.256;-42.224;27.04;36.84;23.733;24.238;5.609;62.702;10.162;149.998;104.451;4.184
920;119.789;83.699;28.752;-152.789;-32.797;41.496;43.509;25.032;27.33;15.799;62.369;15.416;155.402;117.023;7.176
930;129.958;96.397;42.548;-148.541;-25.898;53.971;47.854;26.317;30.416;24.803;61.82;18.783;159.722;127.099;11.287
940;138.946;104.253;56.273;-142.178;-18.658;63.61;51.102;28.089;33.668;33.629;61.255;21.066;164.722;136.323;16.958
950;145.311;112.726;68.701;-133.16;-11.836;69.937;55.963;29.851;36.914;41.747;58.918;24.46;168.234;144.696;22.974
960;151.766;119.754;81.499;-123.825;-1.497;79.082;60.095;31.491;41.436;48.568;56.568;27.078;170.257;152.278;28.594
970;157.607;125.781;91.784;-114.619;9.553;91.847;63.993;33.127;44.298;54.21;54.607;29.687;172.083;157.094;32.718
980;163.275;134.16;101.026;-103.838;18.167;103.944;67.801;35.056;47.158;59.776;52.634;31.687;173.586;160.202;38.201
990;169.764;143.567;112.507;-92.24;25.004;116.363;70.675;36.985;47.471;64.849;48.854;31.991;174.591;161.899;45.138
1000;176.789;152.616;124.201;-81.366;32.766;129.033;73.381;39.537;47.785;67.92;45.069;33.165;173.965;162.463;53.489
1010;182.61;160.32;134.67;-71.46;43.65;141.42;75.57;42.08;47.1;70.74;41.72;34.02;172.65;164.1;60.8
1020;187.563;166.41;145.633;-62.402;52.433;154.814;76.824;42.225;45.96;74.352;38.367;34.307;172.767;165.709;67.068
1030;190.382;172.409;154.821;-54.41;61.234;167.025;77.754;42.361;44.813;77.244;35.021;34.996;170.892;165.986;72.613
1040;192.08;177.441;162.411;-44.713;70.87;177.039;78.938;41.609;44.417;78.046;31.664;36.557;167.27;164.748;79.811
1050;193.497;180.59;167.912;-35.638;80.9;185.316;78.757;40.849;44.008;77.333;26.775;39.244;161.471;160.209;85.887
1060;193.627;182.088;172.337;-28.716;92.6;189.143;77.11;40.928;44.257;78.147;21.874;42.59;155.874;153.6;90.234
1070;194.692;183.982;176.505;-24.143;103.356;189.874;74.898;41.001;42.251;77.548;18.263;44.846;149.282;143.718;93.742
1080;193.043;184.94;178.795;-19.553;110.57;190.115;73.345;41.467;40.239;77.77;14.634;47.093;138.146;132.657;96.133
1090;188.19;185.339;178.449;-12.681;117.49;187.696;71.145;41.931;37.46;75.897;10.189;49.334;125.557;120.028;97.239
1100;181.145;185.96;178.088;-4.82;125.489;181.422;69.504;42.442;34.676;75.805;5.728;50.497;110.807;107.288;97.406
1110;176.698;186.06;178.698;3.844;132.425;174.515;67.958;42.953;34.962;75.475;3.327;53.631;96.009;94.416;95.665
1120;171.663;183.973;178.902;11.515;139.365;169.112;64.091;45.422;37.069;73.897;0.918;56.079;81.335;80.597;92.468
1130;167.175;179.679;177.063;21.49;147.495;162.896;58.842;47.891;39.171;75.672;-1.739;58.394;67.128;66.448;89.871
1140;162.725;175.826;174.59;32.072;153.305;154.881;52.605;49.06;38.907;74.923;-4.405;60.942;53.349;52.213;85.773
1150;157.321;169.719;171.883;42.102;157.134;147.513;48.242;50.231;38.635;74.066;-6.221;63.699;39.336;39.724;80.641
1160;151.826;162.445;169.143;50.245;160.986;140.275;43.598;49.56;36.633;72.774;-8.038;67.529;23.828;29.283;75.576
1170;145.162;156.648;165.836;57.147;165.178;132.2;41.23;48.892;36.022;71.071;-9.418;70.997;7.906;17.656;70.067
1180;137.747;148.858;161.301;63.116;169.675;125.307;38.214;47.826;35.409;71.215;-10.522;72.532;-6.993;6.592;63.422
1190;131.637;141.438;155.855;65.81;172.185;119.8;34.915;46.588;32.944;69.36;-11.629;73.063;-21.461;-5.52;57.52
1200;124.897;133.462;149.543;66.787;172.419;115.067;30.123;44.472;30.472;68.178;-10.699;70.956;-36.38;-16.603;51.644
1210;116.18;124.145;144.087;65.943;168.832;107.097;25.417;41.918;25.003;65.953;-9.772;71.41;-50.887;-26.675;43.197
1220;107.954;114.749;137.921;65.05;164.443;97.247;21.066;39.366;20.816;63.364;-9.165;73.039;-63.935;-34.955;34.141
1230;99.386;106.57;131.862;63.17;159.868;87.136;16.545;35.618;16.625;60.999;-8.562;74.767;-76.545;-42.676;24.351
1240;90.181;97.642;123.231;59.553;155.583;77.847;12.42;31.87;13.945;58.451;-8.443;74.45;-88.024;-50.551;14.643
1250;80.021;88.443;112.901;55.846;150.784;68.274;7.69;28.355;11.058;56.899;-8.327;71.398;-98.603;-58.373;4.215
1260;68.312;78.256;103.576;52.56;143.416;58.136;2.912;24.84;8.248;56.88;-8.576;68.344;-109.024;-67.296;-5.472
1270;55.534;66.967;93.68;50.145;137.541;48.18;-0.945;22.999;5.866;57.414;-8.83;65.617;-118.711;-76.6;-13.741
1280;42.974;54.674;83.933;48.014;130.723;37.673;-4.086;21.163;3.477;58.688;-10.928;62.275;-126.708;-85.912;-22.197
1290;31.425;42.203;75.878;46.802;122.844;26.26;-7.431;19.43;1.733;59.816;-13.031;59.293;-135.751;-94.831;-31.958
1300;17.872;29.66;67.022;44.222;114.532;15.652;-10.139;17.703;-0.352;61.143;-13.51;55.343;-143.281;-100.728;-42.192
1310;5.783;17.332;57.551;42.322;103.917;9.431;-13.686;14.437;-2.282;60.838;-13.995;51.912;-150.971;-106.408;-52.309
1320;-6.032;5.399;48.692;42.718;95.186;5.972;-16.948;11.176;-4.51;59.986;-14.207;49.637;-159.336;-112.136;-62.69
1330;-17.349;-7.02;39.793;42.742;86.93;-0.377;-20.711;6.514;-6.739;58.526;-14.424;45.366;-166.01;-117.684;-71.518
1340;-26.437;-19.547;30.59;44.49;76.134;-6.835;-24.032;1.863;-7.709;56.68;-13.869;40.883;-171.327;-122.847;-79.283
1350;-34.71;-32.138;20.531;46.577;66.649;-11.779;-26.003;-2.576;-8.747;54.872;-13.32;36.97;-176.734;-126.446;-88.002
1360;-44.016;-44.144;9.899;48.674;55.907;-16.287;-28.013;-7.003;-10.387;53.065;-11.816;33.095;-183.087;-130.683;-96.637
1370;-53.677;-54.181;-0.339;49.596;45.968;-21.762;-28.637;-12.941;-12.189;50.265;-10.317;30.031;-190.244;-134.145;-104.246
1380;-65.683;-62.528;-8.841;47.628;34.061;-26.692;-29.939;-18.869;-13.993;44.946;-8.686;26.964;-197.69;-136.822;-112.897
1390;-80.813;-72.75;-17.215;42.448;21.263;-28.847;-30.406;-24.149;-12.77;41.819;-7.057;23.015;-204.953;-140.354;-120.283
1400;-95.441;-82.582;-26.45;39.144;9.473;-30.471;-31.439;-29.413;-11.537;38.935;-5.992;18.363;-212.029;-143.469;-126.419
1410;-109.951;-92.834;-36.461;37.869;-4.003;-34.613;-32.23;-33.706;-9.383;37.17;-4.93;13.153;-218.334;-147.059;-134.24
1420;-122.795;-102.758;-46.766;33.487;-18.269;-39.779;-32.496;-37.979;-8.427;34.562;-4.262;8.285;-224.62;-149.572;-140.855
1430;-134.84;-111.089;-56.692;26.345;-31.815;-42.892;-31.677;-41.809;-7.469;31.313;-3.597;3.418;-229.96;-152.271;-146.759
1440;-147.598;-118.322;-65.66;27.665;-42.434;-44.22;-30.632;-45.623;-4.91;28.156;-3.736;-0.452;-234.748;-154.213;-153.369
1450;-159.088;-125.913;-73.699;25.864;-49.517;-45.441;-28.959;-48.389;-2.201;24.194;-5.78;-3.035;-239.512;-155.969;-160.709
1460;-168.397;-132.44;-82.087;24.022;-52.811;-44.735;-27.363;-51.143;1.109;21.15;-7.829;-5.738;-245.241;-157.902;-166.469
1470;-178.981;-140.686;-92.764;17.076;-57.395;-48.632;-26.519;-55.952;0.472;15.982;-9.806;-12.873;-253.578;-162.574;-173.422
1480;-189.806;-148.625;-102.428;10.552;-63.481;-53.761;-25.77;-59.891;-0.448;10.49;-11.782;-19.919;-261.115;-167.728;-180.577
1490;-199.881;-155.583;-108.743;5.859;-71.414;-58.966;-24.188;-63.99;-2.501;6.483;-13.423;-23.808;-268.321;-171.028;-186.774
1500;-208.841;-161.186;-113.519;1.772;-79.746;-62.572;-23.686;-67.101;-4.326;2.276;-15.389;-25.825;-274.139;-172.669;-191.599
1510;-216.343;-166.709;-118.466;-4.303;-86.783;-65.246;-22.988;-70.108;-5.012;-2.956;-17.742;-26.943;-276.964;-173.636;-195.135
1520;-221.728;-171.854;-123.854;-9.606;-93.059;-70.575;-23.236;-72.476;-7.183;-8.949;-19.833;-28.269;-279.07;-174.57;-198.714
1530;-224.356;-175.114;-129.036;-15.651;-98.292;-76.022;-23.476;-74.844;-9.375;-15.248;-20.084;-28.556;-281.095;-175.135;-201.335
1540;-226.15;-178.665;-134.81;-23.254;-104.756;-81.946;-23.909;-76.371;-10.723;-21.56;-20.514;-29.321;-282.302;-175.8;-202.819
1550;-227.097;-183.063;-139.057;-29.255;-110.095;-86.692;-25.687;-78.084;-12.07;-27.88;-20.194;-30.225;-283.011;-177.75;-203.699
1560;-228.926;-187.553;-142.84;-34.291;-114.87;-91.903;-26.396;-78.269;-13.268;-33.361;-19.874;-31.817;-282.97;-179.819;-203.225
1570;-231.032;-190.928;-145.717;-40.934;-121.952;-98.928;-27.804;-78.481;-12.786;-37.665;-19.91;-33.728;-281.33;-180.817;-201.417
1580;-230.524;-194.497;-150.8;-47.488;-127.927;-104.226;-28.698;-78.047;-12.519;-41.728;-19.946;-35.557;-278.206;-180.73;-200.337
1590;-230.065;-198.865;-155.535;-56.246;-133.619;-108.939;-29.112;-77.709;-12.026;-45.484;-18.425;-37.36;-275.069;-179.655;-200.546
1600;-229.964;-203.698;-159.913;-65.577;-141.25;-115.25;-30.815;-78.669;-11.534;-48.712;-16.786;-39.232;-271.59;-178.982;-200.532
1610;-229.757;-207.93;-163.611;-75.189;-150.263;-122.05;-32.07;-79.794;-12.087;-52.161;-16.108;-40.768;-267.786;-176.971;-198.941
1620;-229.076;-210.8;-167.672;-83.025;-156.981;-129.411;-34.212;-80.848;-14.615;-54.69;-16.167;-42.425;-263.655;-175.586;-195.503
1630;-228.763;-213.818;-171.796;-90.898;-164.841;-135.717;-35.619;-81.902;-17.323;-58.083;-17.761;-44.032;-258.479;-174.375;-186.988
1640;-226.441;-215.386;-174.521;-95.604;-170.857;-143.295;-37.604;-83.372;-24.003;-60.952;-19.356;-45.636;-251.777;-171.286;-184.778
1650;-225.048;-215.066;-176.132;-99.647;-175.512;-150.797;-38.887;-84.574;-30.683;-64.103;-20.246;-47.69;-244.257;-167.379;-182.826
1660;-223.35;-213.873;-177.317;-104.957;-178.018;-156.097;-39.788;-85.686;-36.986;-67.364;-21.135;-49.51;-236.87;-162.843;-177.637
1670;-222.818;-213.561;-177.68;-106.074;-178.458;-161.716;-41.368;-86.797;-40.932;-69.663;-23.892;-51.403;-228.399;-157.566;-172.448
1680;-221.75;-213.371;-176.444;-106.346;-177.832;-167.803;-43.377;-87.291;-44.92;-73.273;-26.891;-52.298;-219.359;-151.754;-167.094
1690;-220.52;-213.706;-175.215;-114.575;-178.948;-174.012;-44.863;-87.93;-48.727;-74.545;-29.09;-53.294;-209.294;-145.114;-159.946
1700;-217.677;-212.749;-173.371;-120.596;-181.433;-178.843;-47.193;-87.934;-52.534;-75.097;-31.081;-53.623;-197.229;-138.388;-152.113
1710;-215.796;-211.021;-172.092;-126.652;-184.819;-183.338;-49.439;-87.938;-56.142;-74.128;-31.894;-54.411;-183.31;-131.266;-143.571
1720;-213.927;-209.32;-168.964;-128.371;-187.945;-186.688;-52.268;-86.64;-58.011;-73.854;-32.452;-55.33;-168.153;-123.509;-134.837
1730;-211.492;-207.85;-166.094;-128.679;-189.657;-189.04;-55.989;-85.439;-59.825;-73.128;-33.211;-56.48;-152.057;-115.404;-126.615
1740;-208.113;-206.87;-164.294;-127.818;-188.543;-192.066;-59.519;-83.673;-61.462;-72.727;-33.97;-57.594;-133.41;-107.291;-118.786
1750;-202.52;-206.072;-161.633;-126.015;-187.935;-195.768;-62.617;-81.708;-63.099;-72.877;-33.327;-59.023;-112.406;-99.697;-109.906
1760;-194.666;-204.81;-158.615;-122.77;-189.192;-199.334;-65.554;-79.383;-64.8;-74.367;-32.324;-61.44;-89.754;-91.735;-100.811
1770;-187.503;-202.481;-154.505;-119.874;-187.512;-201.825;-68.119;-77.857;-66.128;-75.524;-31.121;-63.717;-65.814;-81.931;-92.848
1780;-181.673;-197.863;-150.308;-116.05;-188.041;-203.819;-70.386;-76.33;-67.319;-76.634;-30.479;-65.171;-41.098;-71.443;-83.83
1790;-177.855;-191.065;-143.234;-112.361;-184.639;-203.361;-72.219;-75.484;-69.59;-76.665;-29.836;-66.465;-15.097;-59.993;-75.015
1800;-172.797;-182.625;-136.272;-109.283;-183.446;-203.679;-73.237;-74.335;-71.938;-76.735;-29.585;-65.699;12.263;-48.542;-64
1810;-167.771;-173.742;-133.738;-105.156;-182.291;-203.192;-74.274;-74.15;-74.208;-76.321;-29.334;-65.228;39.913;-36.8;-52.552
1820;-164.27;-166.057;-131.063;-98.476;-179.448;-201.28;-75.019;-73.883;-75.87;-76.324;-29.131;-65.41;65.714;-24.764;-39.861
1830;-161.49;-158.749;-126.291;-90.946;-174.074;-198.364;-75.876;-74.677;-77.512;-75.686;-28.914;-66.492;91.768;-11.917;-25.114
1840;-158.592;-148.721;-121.538;-83.822;-167.818;-193.756;-77.364;-74.879;-80.806;-75.727;-29.938;-67.295;119.698;1.317;-9.458
1850;-154.204;-139.302;-116.706;-75.753;-160.639;-188.898;-78.17;-73.97;-83.086;-76.338;-30.975;-67.279;148.27;15.199;6.975
1860;-147.992;-129.063;-111.583;-68.948;-148.393;-183.368;-78.666;-72.895;-85.342;-78.932;-32.199;-67.389;176.428;30.772;21.406
1870;-140.09;-120.527;-104.777;-63.61;-138.881;-175.884;-78.886;-70.228;-87.481;-82.166;-33.422;-66.594;205.377;48.674;33.719
1880;-133.495;-112.466;-93.698;-58.303;-130.887;-170.312;-80.236;-67.56;-90.11;-84.543;-32.91;-65.894;234.622;68.452;42.294
1890;-127.239;-102.521;-87.854;-54.145;-124.305;-164.2;-81.312;-64.388;-92.479;-85.429;-32.399;-65.193;263.244;89.523;58.971
1900;-117.789;-93.004;-82.875;-51.676;-117.463;-158.212;-81.148;-61.181;-93.741;-86.017;-32.799;-63.741;291.563;110.832;78.839
1910;-107.989;-83.345;-78.221;-49.803;-108.4;-154.494;-80.855;-58.651;-94.858;-86.748;-33.143;-62.168;320.274;132.247;99.728
1920;-97.531;-74.284;-73.868;-48.51;-99.207;-148.954;-79.04;-56.121;-95.462;-88.399;-32.048;-59.447;348.8;153.539;119.397
1930;-88.781;-64.462;-70.71;-46.789;-91.254;-143.108;-78.385;-52.261;-95.887;-88.926;-30.712;-57.178;375.502;174.497;139.566
1940;-80.109;-52.39;-65.703;-44.575;-84.357;-137.497;-78.617;-48.179;-97.248;-87.673;-29.393;-55.407;399.608;195.469;159.386
1950;-73.394;-41.12;-59.789;-41.281;-77.316;-133.979;-79.683;-43.607;-98.408;-86.719;-28.026;-55.917;422.073;217.408;179.881
1960;-67.063;-32.532;-52.981;-34.99;-69.792;-129.655;-80.433;-39.034;-98.89;-88.143;-28.508;-56.139;443.905;239.083;200.019
1970;-60.632;-25.192;-49.503;-28.658;-61.483;-124.108;-80.567;-34.822;-99.36;-87.393;-28.989;-56.655;464.826;259.658;220.563
1980;-50.072;-18.051;-45.103;-23.054;-51.575;-117.799;-78.988;-30.782;-99.706;-86.604;-28.972;-56.463;484.047;279.713;242.934
1990;-38.27;-7.106;-40.912;-18.37;-42.148;-108.941;-77.326;-25.112;-97.946;-85.578;-28.956;-54.394;500.143;298.332;265.561
2000;-28.81;3.132;-37.837;-16.839;-33.788;-100.007;-76.222;-19.517;-96.212;-83.752;-30.148;-51.775;512.884;314.327;286.014
2010;-20.908;13.811;-33.364;-16.339;-26.255;-92.732;-75.458;-12.138;-95.28;-83.123;-31.188;-49.046;522.288;328.259;304.975
2020;-13.567;25.807;-28.001;-15.57;-24.393;-85.552;-73.814;-4.814;-94.963;-81.49;-32.432;-46.884;527.549;338.746;325.106
2030;-6.341;36.743;-24.394;-13.422;-20.561;-77.521;-72.549;1.401;-94.728;-79.432;-33.474;-44.909;529.069;349.215;344.498
2040;2.654;45.41;-24.793;-9.648;-16.463;-71.51;-71.116;7.654;-92.501;-79.531;-34.641;-42.564;528.363;357.094;364.15
2050;9.808;51.447;-24.712;-2.924;-10.556;-65.345;-69.986;12.263;-91.161;-79.39;-36.257;-42.916;526.025;363.549;381.979
2060;16.794;56.974;-20.79;4.61;-4.801;-60.047;-68.803;16.873;-89.817;-80.092;-37.906;-43.268;522.357;368.892;398.999
2070;24.101;63.578;-17.861;11.764;-0.531;-53.348;-67.05;22.701;-90.19;-79.298;-39.116;-38.822;518.248;371.665;413.254
2080;31.306;70.29;-13.91;16.684;2.826;-45.083;-63.898;30.634;-88.924;-79.832;-40.25;-36.109;512.564;371.05;423.608
2090;37.766;75.669;-10.188;20.31;6.654;-36.698;-59.448;38.458;-84.834;-80.621;-40.619;-32.283;501.916;366.67;432.764
2100;45.308;81.963;-6.101;24.508;10.283;-25.637;-55.599;46.746;-83.196;-81.299;-39.109;-30.761;486.728;360.688;439.876
2110;53.415;88.343;-0.237;32.435;14.182;-12.756;-51.988;54.421;-81.743;-78.423;-37.337;-29.24;466.721;351.175;445.503
2120;60.186;94.811;5.485;42.661;19.163;0.909;-48.457;60.015;-72.815;-73.146;-37.084;-27.589;442.443;338.903;449.913
2130;67.034;101.346;6.792;53.331;29.263;15.157;-43.535;65.61;-63.767;-67.269;-37.356;-26.233;413.103;323.248;452.119
2140;74.723;106.399;13.989;65.378;41.777;29.425;-38.524;70.874;-54.869;-62.726;-36.684;-23.942;381.789;303.989;449.708
2150;81.161;113.375;22.146;77.59;54.284;43.461;-34.921;77.164;-47.663;-57.709;-35.612;-20.829;348.806;282.949;442.033
2160;88.926;122.764;31.555;87.542;65.181;57.974;-31.026;83.734;-39.6;-53.883;-34.658;-19.389;314.851;259.972;429.246
2170;98.674;135.554;41.317;96.876;76.026;69.687;-27.476;90.463;-34.894;-48.621;-33.215;-19.174;282.088;235.491;415.077
2180;108.999;148.792;52.924;108.117;89.217;81.484;-22.214;95.065;-28.948;-43.352;-31.862;-18.415;250.368;211.29;397.83
2190;119.063;158.509;62.459;122.103;106.468;95.468;-16.952;100.254;-21.892;-40.371;-30.748;-15.284;218.074;187.345;376.774
2200;129.004;167.8;70.669;135.743;124.971;109.974;-9.723;104.568;-14.949;-38.207;-30.313;-10.028;184.527;162.805;351.295
2210;141.508;178.097;78.614;146.603;141.175;123.203;-1.137;109.746;-6.146;-33.65;-29.637;-5.75;150.561;137.913;323.054
2220;154.232;189.4;90.357;154.676;155.349;137.484;7.266;114.971;4.319;-31.392;-24.681;-1.372;116.641;113.328;293.593
2230;163.822;203.328;101.348;162.239;169.32;152.743;15.552;120.175;15.823;-27.161;-20.836;2.697;82.571;88.601;261.546
2240;172.461;213.883;112.303;168.767;186.05;165.807;25.441;124.142;27.906;-23.244;-17.052;5.828;48.257;64.448;229.157
2250;181.712;223.092;123.061;176.116;205.636;179.618;36.524;126.459;39.926;-20.597;-14.206;8.241;14.559;42.382;197.512
2260;191.892;232.04;133.119;184.172;225.123;196.868;46.04;125.463;51.183;-16.27;-11.338;11.098;-17.683;21.436;165.532
2270;203.549;239.157;141.514;193.619;245.701;215.821;54.938;124.516;60.686;-12.713;-6.684;15.008;-48.339;1.596;133.406
2280;215.537;245.003;151.433;203.545;268.185;233.924;63.386;125.261;70.428;-7.501;-0.63;18.919;-75.593;-19.204;100.04
2290;227.593;251.222;163.572;213.316;289.69;252.604;73.512;126.156;78.27;-2.961;5.21;22.303;-101.221;-39.036;66.117
2300;240.371;259.706;174.905;221.437;310.058;269.877;85.236;127.422;86.912;1.607;10.65;26.221;-126.28;-58.175;31.749
2310;252.228;268.352;184.88;226.324;332.439;285.97;95.211;128.688;94.92;5.996;16.021;30.261;-151.379;-77.141;-3.588
2320;263.836;276.454;193.308;228.611;357.808;299.269;104.858;128.472;103.743;11.465;21.251;31.269;-176.604;-94.381;-37.959
2330;275.225;284.462;199.917;232.425;379.403;308.663;110.843;127.012;110.607;18.279;27.641;35.048;-202.092;-109.106;-70.059
2340;286.268;291.903;207.315;236.752;397.527;316.331;114.491;125.277;114.698;26.727;33.468;37.952;-225.473;-120.673;-100.21
2350;294.774;299.485;215.486;239.913;414.299;324.029;120.157;122.022;119.909;35.286;37.134;43.692;-245.21;-131.861;-127.957
2360;300.669;306.237;221.901;239.36;426.862;331.611;125.463;119.572;125.194;42.692;40.786;52.221;-259.75;-141.647;-153.006
