timepoints (min);30: frq9-.1;31: frq9-.2;32: frq9-.3;33: frq10-.1;34: frq10-.2;35: frq10-.3;36: wc-1+.1;37: wc-1+.2;38: wc-1+.3;39: wc-2+.1;40: wc-2+.3;;41: wc-1-.1;42: wc-1-.2;43: wc-1-.3
880;39.18;-297.6;-305.644;-185.362;-203.788;-424.596;-35.546;-162.698;-83.625;-126.488;-170.773;;-175.798;-214.511;-264.787
890;28.539;-283.041;-294.125;-171.18;-193.096;-390.423;-33.927;-146.514;-78.185;-120.859;-166.346;;-162.726;-200.234;-248.38
900;19.307;-270.52;-282.227;-159.987;-183.933;-361;-32.413;-130.04;-73.493;-116.013;-162.52;;-151.573;-182.787;-231.427
910;10.428;-258.977;-271.793;-149.201;-176.921;-336.73;-30.303;-114.839;-69.026;-111.803;-157.049;;-142.77;-167.592;-217.112
920;2.924;-248.679;-261.231;-141.636;-170.264;-316.731;-26.108;-102.118;-64.973;-106.172;-152.28;;-134.81;-155.963;-203.772
930;-4.034;-240.923;-250.705;-136.483;-164.269;-296.115;-22.479;-90.821;-61.274;-101.201;-148.094;;-128.556;-146.919;-191.564
940;-8.592;-234.13;-241.312;-130.849;-159.26;-277.624;-19.155;-80.292;-58.011;-96.784;-144.396;;-122.915;-137.743;-180.094
950;-12.662;-225.35;-232.325;-124.225;-155.987;-259.638;-17.4;-69.825;-54.988;-91.537;-141.275;;-117.813;-129.825;-169.6
960;-14.51;-217.543;-224.427;-117.936;-152.792;-246.739;-16.758;-59.938;-52.067;-86.94;-133.312;;-112.758;-121.877;-160.75
970;-15.671;-209.371;-216.68;-112.028;-150.4;-234.662;-16.206;-50.601;-49.496;-82.793;-126.121;;-106.895;-113.953;-153.377
980;-15.771;-202.15;-209.486;-106.147;-140.197;-226.266;-15.919;-42.137;-47.197;-79.036;-119.599;;-101.12;-106.253;-146.826
990;-15.47;-195.655;-202.976;-100.53;-130.762;-217.613;-15.607;-35.089;-45.339;-75.827;-113.649;;-95.81;-99.47;-141.357
1000;-15.299;-190.294;-197.035;-94.353;-123.007;-209.445;-15.094;-28.729;-43.619;-73.136;-108.212;;-91.202;-93.224;-135.918
1010;-20.601;-172.603;-185.49;-70.832;-98.754;-180.047;-0.87;-10.499;-33.889;-66.995;-97.955;;-71.941;-65.456;-109.483
1020;-25.703;-154.069;-174.151;-47.338;-76.302;-150.594;13.989;7.703;-23.736;-60.838;-87.684;;-52.136;-38.786;-82.842
1030;-28.112;-135.402;-162.457;-30.209;-62.039;-118.965;23.15;25.774;-17.487;-54.907;-77.399;;-32.348;-19.809;-63.897
1040;-30.559;-116.137;-150.606;-16.223;-51.707;-88.531;26.637;42.562;-13.235;-48.883;-66.864;;-18.302;-3.997;-51.058
1050;-32.102;-100.153;-138.364;-3.862;-41.107;-58.4;26.149;58.793;-9.98;-42.847;-56.322;;-4.822;8.258;-38.731
1060;-34.041;-84.415;-125.984;7.197;-35.318;-35.446;25.498;75.011;-6.754;-36.799;-48.133;;4.739;20.753;-28.926
1070;-36.083;-75.313;-113.077;13.167;-31.5;-19.03;24.84;84.777;-4.458;-29.367;-39.936;;9.604;29.31;-19.322
1080;-38.569;-65.454;-99.985;20.024;-26.546;-1.386;24.827;88.672;-2.671;-21.927;-31.732;;14.531;34.609;-11.986
1090;-37.987;-58.933;-87.05;26.586;-22.795;10.341;25.012;92.191;-0.855;-17.36;-23.501;;20.263;37.754;-4.82
1100;-36.901;-52.539;-62.848;31.93;-21.562;17.173;25.423;96.579;1.162;-12.787;-15.263;;23.583;39.006;-0.114
1110;-34.622;-47.401;-38.705;35.106;-22.029;21.599;26.397;100.579;3.488;-7.723;-12.06;;24.905;41.241;4.249
1120;-30.042;-43.664;-22.943;37.114;-22.383;24.807;27.085;103.128;5.096;-2.649;-8.85;;26.222;43.971;8.868
1130;-25.468;-39.942;-9.516;37.615;-21.837;25.075;27.942;105.533;6.031;0.753;-5.636;;27.506;48.404;13.33
1140;-19.628;-37.128;-3.556;36.969;-18.875;23.752;29.784;107.966;6.888;5.202;-2.759;;29.065;52.997;18.329
1150;-13.74;-33.77;0.03;37.23;-15.1;23.62;34.58;109.04;7.91;9.57;0.13;;31.52;53.65;23.63
1160;-7.904;-31.077;3.461;38.706;-10.623;24.97;37.307;109.821;9.373;13.947;3.111;;35.421;53.322;27.762
1170;-2.177;-27.72;6.72;41.874;-7.555;26.876;38.339;111.618;10.806;16.933;6.102;;39.081;53.237;31.831
1180;4.42;-23.81;8.988;46.715;-5.955;26.457;41.019;113.443;12.619;20.848;9.105;;43.491;54.139;32.409
1190;9.945;-19.408;10.093;51.235;-4.071;24.823;43.082;115.168;14.232;24.848;12.138;;47.792;53.525;32.913
1200;15.945;-17.619;10.43;53.501;-0.844;21.505;44.718;115.865;15.964;27.815;17.461;;52.476;52.33;32.949
1210;20.833;-15.37;10.628;53.779;2.956;21.587;47.408;115.656;17.498;30.789;18.434;;57.386;50.385;35.121
1220;25.72;-13.224;10.779;55.105;7.205;23.475;50.683;113.571;19.165;32.049;19.416;;61.259;49.033;35.077
1230;29.199;-10.673;10.691;56.637;3.846;31.084;53.744;111.479;20.593;33.436;20.407;;64.753;47.398;35.813
1240;32.573;-6.551;11.23;57.351;-0.264;37.772;56.733;110.025;21.738;35.027;21.306;;67.051;47.373;36.828
1250;34.513;-2.398;13.002;55.078;-1.996;47.096;59.647;109.115;22.975;36.622;22.736;;69.94;46.931;39.093
1260;36.585;2.574;14.842;54.932;-2.743;53.749;60.801;105.139;24.091;37.179;22.817;;72.828;45.849;39.97
1270;37.461;7.052;17.033;54.659;-0.27;60.67;61.58;101.156;25.204;37.747;22.907;;75.207;44.444;40.346
1280;37.641;10.209;19.001;50.575;3.296;68.312;62.616;98.016;26.279;38.567;23.007;;77.546;43.092;40.789
1290;37.658;12.819;21.001;45.755;8.832;75.851;62.43;96.043;26.831;39.397;22.879;;79.554;40.197;41.435
1300;37.68;14.445;22.868;41.743;15.852;83.412;62.817;94.332;27.327;39.523;21.565;;81.908;38.203;44.216
1310;37.696;16.006;24.753;42.562;23.937;91.077;63.532;91.216;27.423;39.664;22.624;;83.747;36.874;46.949
1320;38.645;17.666;27.704;44.23;30.686;98.054;64.193;88.761;27.638;38.619;23.696;;85.106;35.67;47.673
1330;39.531;20.419;30.604;44.726;37.819;103.831;64.112;86.064;28.073;36.507;24.78;;85.814;35.357;45.486
1340;39.171;22.871;34.646;45.33;44.955;108.461;64.065;82.639;28.46;34.837;26.22;;85.93;34.665;44.321
1350;38.867;25.212;25.472;46.108;52.19;114.122;63.673;78.008;28.6;33.173;26.747;;86.772;33.875;43.723
1360;37.717;27.75;16.543;48.34;60.982;120.44;62.117;73.422;28.3;30.915;28.559;;88.112;33.426;44.758
1370;36.655;30.66;12.632;49.765;67.464;128.276;59.909;67.604;27.799;28.582;30.377;;89.102;31.577;45.729
1380;35.905;33.377;9.049;50.278;71.302;135.492;58.039;61.043;27.154;26.287;32.258;;88.718;29.603;47.059
1390;36.275;36.884;13.616;52.423;74.379;142.027;57.054;53.799;26.765;22.957;34.143;;87.704;25.691;45.63
1400;36.64;39.888;20.792;57.608;75.488;146.976;53.64;46.552;26.632;19.632;36.832;;85.76;22.688;40.712
1410;37.599;43.939;27.755;59.656;75.751;151.267;51.177;38.742;25.978;16.751;38.046;;83.22;21.466;35.844
1420;38.631;46.725;32.891;59.743;77.08;155.317;48.044;30.561;25.41;13.481;39.264;;82.059;20.959;31.12
1430;38.816;49.587;38.125;59.745;77.033;158.944;43.57;22.496;24.394;9.301;40.275;;81.372;21.529;29.824
1440;39.064;51.222;42.654;58.951;77.223;163.123;39.302;14.428;23.531;5.132;41.293;;81.031;23.641;29.173
1450;38.945;53.317;47.511;60.777;76.82;166.746;35.989;6.843;22.069;1.172;39.718;;80.137;26.495;27.972
1460;38.652;55.141;50.91;64.386;75.761;169.104;33.384;-0.035;20.445;-2.777;38.151;;78.013;29.356;25.051
1470;38.593;56.247;53.916;66.982;74.435;168.498;30.989;-4.986;18.926;-4.998;36.59;;75.476;30.174;24.182
1480;38.96;57.48;56.538;69.44;72.953;165.166;28.785;-10.02;17.7;-7.008;35.239;;72.848;30.613;22.354
1490;39.323;56.69;58.413;73.397;70.993;161.317;25.97;-15.052;16.924;-8.764;33.891;;71.288;29.909;20.844
1500;40.999;55.781;59.027;78.052;67.216;155.564;22.994;-20.121;16.15;-10.514;31.827;;69.667;29.572;17.367
1510;42.452;54.083;59.137;80.629;63.879;152.292;21.096;-22.125;15.071;-11.659;29.766;;67.44;30.676;17.472
1520;43.707;51.756;58.38;81.336;59.495;150.007;18.771;-24.01;13.809;-12.439;27.708;;64.509;32.475;18.776
1530;44.775;52.558;57.608;83.658;53.774;149.243;15.894;-26.736;12.3;-13.221;25.653;;61.031;33.516;19.847
1540;44.367;53.31;56.73;85.985;47.693;148.063;13.458;-30.858;11.393;-13.999;23.601;;57.134;33.135;19.755
1550;43.721;55.551;55.636;86.917;39.247;147.176;10.041;-35.723;10.693;-14.291;23.273;;53.273;32.796;17.387
1560;41.082;57.446;55.094;83.704;28.743;144.392;6.57;-39.186;10.406;-14.179;22.947;;49.914;31.229;15.297
1570;36.312;58.994;52.605;81.633;18.523;141.08;1.853;-42.668;10.103;-14.161;22.624;;46.872;30.015;13.283
1580;31.55;59.571;50.066;82.331;7.703;137.599;-1.541;-44.769;9.243;-13.057;22.228;;43.786;27.926;14.755
1590;24.986;60.241;46.501;84.08;0.731;133.904;-5.028;-46.599;9.218;-11.947;21.795;;41.138;25.517;16.953
1600;18.109;61.204;42.428;86.372;-2.354;128.097;-8.152;-47.808;8.928;-9.873;22.286;;37.261;23.508;19.055
1610;11.392;59.186;37.062;81.92;-9.354;116.498;-12.53;-51.021;6.981;-9.105;21.225;;29.43;16.367;13.994
1620;4.523;56.808;32.137;77.908;-14.39;103.219;-15.817;-53.742;4.397;-8.257;20.164;;22.513;9.89;7.614
1630;-2.989;54.062;27.17;76.247;-16.775;87.279;-19.156;-55.993;2.723;-7.408;19.331;;16.356;3.417;2.292
1640;-11.186;50.396;21.243;73.61;-18.556;71.55;-21.316;-57.412;1.843;-6.743;17.658;;13.589;0.546;-2.291
1650;-19.148;47.582;13.876;66.399;-19.357;56.05;-22.916;-59.032;0.786;-6.079;15.185;;12.517;-1.63;-5.606
1660;-26.152;45.168;6.033;59.819;-18.917;42.763;-24.589;-60.43;-0.672;-5.854;12.712;;12.142;-3.739;-7.012
1670;-33.232;44.221;-0.73;54.752;-18.994;31.778;-26.07;-61.452;-2.425;-6.269;10.239;;12.266;-5.283;-8.059
1680;-38.757;39.873;-7.541;48.777;-16.632;20.608;-27.426;-58.343;-3.84;-6.746;7.717;;11.21;-8.727;-8.834
1690;-44.4;37.091;-11.872;43.383;-14.803;11.032;-28.443;-57.425;-5.186;-6.727;5.116;;8.418;-13.96;-9.937
1700;-49.374;34.869;-15.623;37.298;-8.815;3.348;-29.212;-56.563;-6.117;-6.908;2.834;;6.32;-19.177;-9.917
1710;-54.348;32.906;-17.487;31.001;-3.392;-2.55;-31.404;-57.921;-6.371;-6.648;1.201;;4.713;-24.563;-9.939
1720;-59.908;31.295;-18.748;24.921;2.258;-8.288;-34.654;-58.051;-6.548;-6.43;-0.432;;3.655;-27.564;-9.032
1730;-66.059;29.564;-19.67;17.498;5.83;-13.007;-37.445;-57.699;-6.657;-6.123;-2.217;;3.4;-29.872;-7.364
1740;-73.428;28.047;-20.273;7.865;7.83;-16.462;-40.31;-57.396;-6.939;-5.815;-2.641;;2.817;-32.352;-5.206
1750;-81.283;26.81;-20.821;-0.92;9.272;-20.659;-44.327;-57.868;-7.577;-5.148;-2.866;;2.491;-35.014;-2.792
1760;-89.221;26.599;-20.286;-7.69;9.912;-24.728;-48.167;-59.156;-7.946;-4.659;-2.85;;1.585;-37.386;-2.332
1770;-95.847;28.668;-19.079;-11.63;10.847;-29.614;-51.32;-60.927;-8.612;-4.29;-2.833;;-0.001;-38.756;-4.13
1780;-102.632;29.059;-17.139;-15.935;12.498;-35.354;-55.127;-62.705;-9.239;-3.92;-2.686;;-1.074;-39.432;-5.766
1790;-106.865;28.531;-14.08;-18.127;15.359;-38.655;-58.821;-63.116;-10.218;-4.015;-2.618;;-2.793;-38.811;-6.181
1800;-111.043;27.97;-10.91;-17.348;18.167;-40.895;-60.981;-62.288;-11.542;-3.931;-3.07;;-4.699;-38.983;-3.814
1810;-112.088;25.568;-7.581;-17.223;21.916;-43.095;-64.245;-61.228;-12.679;-4.247;-2.771;;-6.737;-38.739;-0.283
1820;-111.743;23.796;-3.735;-19.168;25.266;-43.637;-66.378;-60.006;-13.821;-4.563;-2.541;;-8.968;-38.222;2.986
1830;-110.021;21.091;0.714;-22.338;30.499;-46.993;-69.443;-59.348;-14.772;-5.419;-2.31;;-10.821;-36.288;5.328
1840;-107.033;18.306;5.244;-26.81;33.599;-49.741;-71.79;-59.2;-16.745;-6.31;-1.6;;-11.99;-33.524;4.91
1850;-104.08;17.59;10.07;-31.593;33.567;-51.839;-74.117;-59.346;-19.037;-8.001;-0.89;;-12.223;-30.633;3.992
1860;-101.552;15.954;13.057;-34.643;33.119;-53.326;-77.462;-59.268;-21.641;-7.732;0.055;;-10.99;-28.124;3.966
1870;-98.782;13.156;15.297;-38.454;31.273;-52.869;-81.389;-59.332;-23.858;-7.408;0.959;;-10.48;-26.404;2.524
1880;-97.506;10.557;17.582;-40.957;31.237;-50.047;-85.179;-59.592;-26.32;-7.126;1.862;;-10.073;-23.553;2.281
1890;-95.892;8.255;20.108;-43.029;30.983;-47.065;-88.673;-59.852;-29.328;-6.563;4.686;;-11.051;-22.232;3.513
1900;-95.543;6.393;22.661;-45.127;33.571;-45.026;-92.514;-60.137;-32.352;-4.92;7.509;;-14.383;-20.88;4.72
1910;-96.314;3.259;25.654;-45.746;36.543;-45.414;-96.446;-60.614;-35.123;-3.126;9.926;;-17.629;-20.011;6.117
1920;-96.895;-0.274;28.617;-46.879;39.596;-46.615;-99.883;-61.337;-37.659;-0.484;12.735;;-20.914;-18.901;6.927
1930;-98.742;-0.719;31.11;-48.691;39.041;-48.203;-102.983;-65.469;-40.626;2.157;15.545;;-23.254;-16.521;7.861
1940;-100.286;-1.742;33.124;-50.635;38.801;-49.883;-105.252;-66.949;-43.746;2.759;16.794;;-24.877;-12.819;7.743
1950;-102.705;-3.326;37.552;-53.566;32.644;-51.919;-107.179;-68.277;-47.102;3.429;18.044;;-28.928;-9.737;8.941
1960;-104.793;-4.097;40.579;-55.526;27.695;-53.115;-108.268;-67.945;-50.901;3.763;19.073;;-32.869;-7.531;11.039
1970;-107.748;-5.268;42.975;-56.512;21.022;-52.393;-109.101;-68.549;-54.921;4.097;20.095;;-35.705;-6.801;13.302
1980;-110.688;-4.832;43.796;-56.648;15.913;-51.163;-110.415;-68.916;-58.669;4.284;20.837;;-36.935;-7.25;12.557
1990;-112.466;-3.876;42.254;-54.821;10.894;-50.055;-112.363;-69.276;-62.593;4.651;20.219;;-38.873;-7.914;11.142
2000;-114.135;-2.83;40.374;-52.514;6.812;-48.821;-113.617;-69.123;-66.484;4.658;19.601;;-41.052;-8.2;11.131
2010;-115.894;-3.185;38.894;-51.375;3.479;-47.786;-115.583;-68.956;-70.153;4.665;19.239;;-43.683;-9.543;11.337
2020;-118.673;-5.075;37.386;-50.906;-0.434;-47.232;-117.414;-68.324;-73.993;6.582;18.559;;-45.326;-11.971;12.982
2030;-121.335;-7.284;34.858;-49.412;-3.523;-45.743;-117.823;-67.892;-77.251;8.658;18.959;;-47.594;-14.694;13.436
2040;-125.31;-8.719;30.564;-47.752;-7.164;-45.228;-118.004;-67.683;-80.49;11.054;19.439;;-49.005;-17.295;13.91
2050;-129.286;-11.261;26.181;-47.888;-9.912;-45.897;-119.425;-68.112;-83.777;13.45;20.312;;-50.508;-19.993;12.819
2060;-133.96;-11.963;20.797;-48.757;-11.843;-45.566;-119.88;-69.265;-87.423;15.535;21.185;;-51.578;-23.058;8.92
2070;-138.6;-12.961;15.331;-49.098;-13.454;-45.153;-120.999;-70.454;-91.097;17.324;22.023;;-51.568;-26.281;4.01
2080;-143.855;-12.8;11.375;-47.621;-15.43;-42.101;-121.705;-71.56;-94.437;19.633;21.782;;-51.87;-29.99;-0.521
2090;-149.556;-9.788;7.33;-46.404;-19.204;-39.298;-122.608;-72.004;-97.417;20.622;21.101;;-52.154;-33.145;-0.898
2100;-154.659;-9.775;4.05;-47.508;-23.331;-38.48;-123.051;-72.68;-99.941;21.694;20.509;;-51.712;-35.476;1.914
2110;-158.051;-9.708;1.13;-47.521;-27.964;-42.172;-121.45;-73.535;-102.157;20.702;19.917;;-51.486;-38.414;-0.898
2120;-161.608;-9.24;-1.597;-47.12;-31.938;-46.023;-119.852;-74.528;-104.419;19.71;19.477;;-50.905;-40.112;-1.959
2130;-162.357;-8.977;-4.044;-49.643;-35.646;-52.141;-117.508;-74.559;-106.276;18.759;19.037;;-50.361;-40.875;-2.539
2140;-162.975;-8.393;-6.222;-51.604;-39.332;-57.749;-115.383;-74.126;-108.036;18.524;17.517;;-49.21;-39.203;-4.199
2150;-161.932;-8.612;-8.164;-51.03;-45.172;-61.48;-112.593;-73.047;-109.986;17.127;15.79;;-46.985;-36.938;-5.644
2160;-160.648;-6.652;-10.026;-49.833;-49.153;-63.937;-109.203;-72.21;-112.212;15.73;14.063;;-45.174;-34.939;-7.53
2170;-158.561;-4.292;-11.481;-46.244;-51.986;-67.23;-105.532;-70.421;-114.139;14.92;12.281;;-43.517;-33.433;-7.956
2180;-156.527;-1.146;-12.177;-40.371;-51.501;-68.742;-102.6;-68.961;-115.905;13.924;10.939;;-41.819;-32.91;-9.206
2190;-152.963;2.6;-12.817;-35.697;-52.662;-70.203;-100.461;-67.89;-117.45;14.968;11.237;;-39.157;-32.732;-10.243
2200;-147.025;5.419;-13.072;-31.386;-52.448;-69.298;-98.472;-66.753;-118.88;15.092;11.377;;-34.491;-31.517;-12
2210;-141.025;7.399;-12.047;-27.618;-53.808;-68.639;-96.808;-65.349;-120.03;15.065;11.599;;-30.055;-28.89;-13.921
2220;-133.181;9.495;-10.822;-23.52;-52.506;-68.974;-95.081;-63.865;-120.575;15.023;11.821;;-27.469;-25.702;-14.794
2230;-125.274;10.672;-7.877;-20.899;-50.779;-69.109;-93.317;-62.299;-120.943;15.142;11.003;;-27.291;-21.607;-13.491
2240;-116.679;11.135;-3.977;-20.476;-47.873;-67.008;-90.502;-60.564;-120.148;14.701;10.185;;-26.868;-17.855;-10.588
2250;-108.234;11.519;0.29;-19.08;-45.599;-64.028;-86.68;-58.65;-118.623;14.501;9.505;;-27.724;-13.792;-9.585
2260;-98.137;12.772;3.876;-17.359;-43.389;-60.761;-82.877;-56.759;-116.611;14.377;8.832;;-27.701;-9.423;-8.775
2270;-87.852;13.999;7.469;-17.492;-40.571;-59.657;-79.684;-55.174;-114.297;12.252;8.159;;-28.79;-5.731;-8.188
2280;-76.636;15.545;11.782;-19.208;-38.059;-57.575;-76.054;-53.455;-111.621;10.488;6.686;;-29.75;-2.415;-6.386
2290;-65.817;17.577;16.556;-22.32;-33.026;-56.712;-72.119;-51.688;-108.465;8.4;5.212;;-30.287;0.244;-3.288
2300;-54.977;20.688;20.367;-24.732;-29.028;-54.633;-67.663;-48.908;-105.328;6.346;3.684;;-30.352;2.672;-0.894
2310;-44.563;24.735;23.916;-26.897;-24.567;-54.19;-62.454;-44.858;-102.548;4.292;2.218;;-29.571;4.492;3.685
2320;-34.314;30.982;27.306;-28.106;-20.074;-53.657;-57.04;-41.008;-99.681;2.203;0.752;;-29.578;5.774;8.6
2330;-22.665;37.181;29.017;-30.804;-13.03;-55.163;-52.211;-37.172;-97.801;0.148;1.246;;-30.279;7.806;13.335
2340;-10.988;41.659;30.761;-32.401;-5.167;-57.91;-47.637;-33.326;-96.134;-0.588;1.739;;-32.011;10.426;14.517
2350;2.142;46.903;33.033;-32.251;4.473;-55.324;-42.17;-28.426;-94.273;-1.323;2.199;;-34.321;12.034;13.659
2360;14.03;51.548;35.702;-33.232;12.709;-48.99;-36.839;-23.677;-92.539;-0.797;2.437;;-35.931;14.414;18.847
2370;27.159;56.899;38.109;-34.546;21.379;-41.444;-30.957;-18.908;-90.168;-0.21;2.676;;-37.531;14.676;23.855
2380;39.815;61.499;40.236;-32.705;27.582;-31.128;-25.604;-14.668;-86.732;0.338;2.154;;-38.454;14.139;26.172
2390;52.189;65.779;42.459;-30.832;30.523;-20.821;-20.239;-10.148;-82.266;1.726;1.633;;-40.652;11.992;26.357
2400;63.287;69.374;44.28;-30.719;33.086;-10.193;-14.523;-5.53;-76.786;2.954;1.201;;-42.801;9.27;26.044
2410;73.709;70.968;46.077;-29.644;31.833;3.879;-8.989;-0.592;-71.308;4.252;0.68;;-44.996;6.517;26.284
2420;83.396;72.115;47.654;-28.583;29.989;16.586;-3.706;4.199;-65.214;4.99;0.559;;-45.924;3.443;27.039
2430;92.89;71.221;48.31;-28.495;28.291;28.036;2.668;9.644;-58.768;5.848;-0.003;;-46.283;0.75;27.432
2440;102.244;70.389;48.87;-28.043;29.426;38.891;10.43;15.292;-52.167;6.768;-0.571;;-46.354;-1.461;27.956
2450;109.96;70.717;47.47;-26.818;32.036;48.317;17.843;20.876;-45.465;8.746;-1.139;;-46.285;-3.868;27.265
2460;119.593;71.328;46.181;-25.921;36.527;57.521;25.112;26.694;-38.913;10.724;-1.446;;-45.786;-5.393;25.25
2470;127.524;72.059;43.781;-26.066;39.535;65.517;33.23;32.739;-30.572;12.382;-1.512;;-45.23;-6.585;23.465
2480;135.448;72.269;40.501;-26.044;38.527;70.916;44.041;38.357;-22.287;14.192;-0.258;;-46.491;-7.978;22.087
2490;140.763;71.305;37.014;-26.425;36.367;73.472;54.51;43.785;-14.134;16.513;0.851;;-46.703;-8.887;21.106
2500;146.05;70.469;33.727;-28.178;33.956;75.348;65.847;49.178;-4.825;18.834;1.96;;-46.383;-9.352;20.785
2510;148.764;69.764;29.855;-29.674;31.612;78.567;78.534;55.811;6.411;20.255;3;;-44.782;-8.476;19.955
2520;152.092;69.259;27.131;-29.975;29.542;85.236;91.818;63.316;18.338;21.566;1.76;;-42.039;-6.447;19.999
2530;154.65;69.879;24.687;-29.473;26.408;89.76;105.247;71.24;31.546;22.516;0.24;;-38.651;-4.407;19.021
2540;157.999;70.298;22.45;-28.946;19.214;94.153;117.997;79.537;44.014;23.466;-1.294;;-36.091;-2.657;16.56
2550;159.626;70.772;20.812;-27.897;12.574;96.365;129.501;87.239;57.455;24.03;-2.828;;-33.392;-2.332;14.437
2560;160.43;68.847;19.552;-25.087;6.505;99.743;140.007;94.727;72.519;24.67;-4.651;;-31.487;-0.742;11.808
2570;161.241;65.183;18.247;-21.825;-0.087;101.942;151.381;102.343;87.832;25.07;-6.434;;-28.701;2.268;8.979
2580;159.794;59.12;16.862;-20.117;-7.644;105.81;163.175;109.542;103.702;25.39;-9.098;;-26.359;4.674;6.32
2590;158.541;52.291;15.636;-17.68;-14.923;110.763;174.672;116.468;120.145;25.841;-11.527;;-26.239;5.462;4.49
2600;155.646;45.428;14.29;-12.916;-22.708;113.119;184.208;122.69;136.452;26.354;-13.956;;-26.33;4.885;2.401
2610;152.971;39.309;12.457;-7.836;-30.291;115.043;193.677;129.103;153.022;25.828;-16.509;;-26.651;5.335;0.463
2620;150.206;34.697;11.422;-2.921;-37.833;115.927;203.49;135.109;169.753;25.821;-17.222;;-25.414;6.588;-1.854
2630;146.596;31.084;10.724;0.883;-42.429;116.397;213.154;141.039;185.386;25.752;-17.175;;-23.537;8.161;-3.125
2640;144.237;28.234;10.157;4.812;-42.257;117.432;222.891;145.069;200.862;24.788;-17.142;;-21.495;9.543;-3.324
2650;142.341;26.425;9.95;8.248;-40.623;118.421;231.567;148.895;215.898;23.823;-17.137;;-20.952;10.923;-1.858
2660;140.61;24.194;9.875;11.272;-37.648;115.876;239.159;153.859;231.023;24.659;-17.131;;-21.974;12.27;-0.075
2670;137.883;21.644;10.797;13.117;-34.392;115.691;246.942;158.844;245.234;25.35;-17.326;;-24.317;14.321;1.125
2680;135.335;20.313;12.883;13.823;-32.756;115.677;252.601;162.677;258.79;25.832;-17.52;;-27.279;16.601;0.846
2690;131.19;18.622;15.168;16.705;-30.786;116.771;256.466;166.034;271.639;26.313;-17.639;;-30.097;18.594;-1.043
