timepoints (min);16: frq7+.1;17: frq7+.2;18: frq7+.3;19: frq1-.1;20: frq1-.2;21: frq1-.3;22: frq7-.1;23: frq7-.2;24: frq7-.3;25: frq9+.1;26: frq9+.2;27: frq9+.3;28: frq10+.1;29: frq10+.2;30: frq10+.3
1020;-218.737;-185.86;-214.817;-139.001;-219.213;-125.732;-250.455;-219.149;-175.981;-92.155;-288.135;-253.145;-80.852;-81.078;-119.878
1030;-214.569;-178.637;-207.697;-125.921;-210.797;-117.683;-240.178;-210.649;-168.407;-87.533;-268.483;-236.753;-69.01;-74.803;-108.359
1040;-209.88;-171.36;-201.027;-114.533;-203.387;-110.92;-231.36;-203.36;-162.933;-83.707;-252.947;-222.813;-59.013;-69.013;-102.013
1050;-204.872;-164.878;-194.559;-103.743;-196.566;-105.178;-223.059;-195.092;-158.201;-78.566;-239.388;-209.48;-50.484;-63.78;-96.484
1060;-200.356;-160.419;-188.704;-94.173;-189.231;-98.045;-215.438;-186.465;-154.756;-75.096;-225.516;-196.828;-42.062;-59.911;-89.39
1070;-195.543;-158.38;-183.915;-84.932;-181.564;-88.611;-208.073;-179.047;-150.654;-72.329;-213.359;-186.389;-34.372;-56.479;-82.662
1080;-191.533;-158.443;-179.476;-76.616;-174.278;-80.135;-201.833;-172.077;-147.057;-72.372;-201.139;-177.199;-24.997;-54.528;-74.813
1090;-187.563;-159.325;-176.013;-67.938;-165.625;-71.375;-196.513;-165.925;-143.188;-72.537;-189.8;-169.625;-15.425;-52.05;-67.762
1100;-184.506;-160.224;-173.549;-60.046;-157.688;-63.083;-191.46;-159.933;-139.451;-72.226;-179.996;-163.931;-6.72;-48.623;-61.441
1110;-181.222;-161.042;-171.795;-51.284;-149.624;-55.108;-186.802;-154.523;-136.41;-70.56;-171.376;-159.553;0.433;-45.571;-57.274
1120;-178.716;-161.914;-170.104;-43.255;-141.812;-47.83;-181.842;-148.532;-133.39;-69.31;-163.971;-155.581;6.725;-43.019;-54.144
1130;-175.97;-162.649;-169.315;-34.994;-134.494;-39.601;-177.244;-143.06;-129.554;-68.964;-157.411;-151.423;12.488;-41.44;-51.363
1140;-172.871;-162.447;-168.146;-27.416;-126.748;-30.473;-172.878;-137.186;-125.774;-69.967;-152.405;-147.374;16.991;-39.908;-48.511
1150;-155.47;-143.62;-150.751;-5.689;-107.7;-13.819;-153.187;-115.753;-111.425;-61.408;-128.595;-126.608;38.774;-33.918;-39.578
1160;-137.851;-124.344;-132.9;15.949;-85.652;2.922;-133.586;-94.132;-96.481;-51.742;-104.693;-105.748;59.949;-27.122;-30.326
1170;-126.846;-109.583;-116.658;35.421;-69.295;17.445;-117.699;-81.605;-85.56;-44.758;-81.227;-85.74;69.78;-19.882;-20.87
1180;-118.318;-100.793;-106.525;45.45;-53.099;33.99;-101.739;-69.076;-74.001;-38.232;-57.764;-65.07;73.65;-12.72;-11.279
1190;-111.44;-96.042;-100.827;55.471;-36.418;49.202;-92.176;-61.153;-66.438;-34.38;-38.787;-47.278;78.749;-6.58;-2.238
1200;-107.285;-94.632;-96.497;62.058;-19.814;64.396;-82.488;-53.231;-58.88;-36.965;-27.163;-40.052;81.666;-0.918;6.798
1210;-101.929;-95.672;-93.229;68.637;-0.482;76.457;-75.24;-44.603;-52.029;-39.62;-15.439;-31.61;85.362;1.88;14.08
1220;-97.223;-97.748;-92.381;71.915;18.029;87.996;-67.937;-36.257;-46.11;-39.535;-9.032;-27.829;88.691;4.709;17.425
1230;-92.995;-99.681;-90.867;75.185;36.34;97.842;-60.798;-28.747;-39.803;-40.826;-5.416;-25.972;90.877;7.507;21.691
1240;-87.4;-102.272;-88.537;76.234;53.299;104.478;-53.945;-23.16;-33.444;-42.2;-1.114;-24.221;90.644;9.907;23.587
1250;-79.373;-105.21;-85.55;77.272;70.081;111.106;-47.182;-17.618;-27.098;-44.721;0.448;-22.137;89.44;11.948;25.717
1260;-71.145;-108.823;-82.132;77.715;84.957;115.668;-40.183;-10.202;-20.825;-47.19;3.002;-20.503;88.859;13.697;25.59
1270;-66.171;-111.962;-78.227;78.145;99.949;119.929;-33.688;-2.785;-14.824;-47.25;5.44;-19.411;87.511;15.197;25.061
1280;-60.711;-115.245;-74.174;79.43;115.154;123.106;-26.227;3.803;-9.526;-47.79;5.896;-18.606;85.353;15.889;23.421
1290;-55.57;-119.08;-70.89;80.7;128.29;126.84;-18.61;10.39;-3.8;-50.03;7.71;-17.82;83.59;17.06;24
1300;-50.254;-121.771;-67.978;81.544;141.179;129.405;-10.71;17.266;2.705;-51.987;9.286;-18.462;81.912;17.339;25.127
1310;-45.137;-122.129;-65.272;82.373;153.764;130.439;-2.425;22.779;9.67;-52.636;9.444;-19.979;79.426;18.115;24.729
1320;-41.381;-120.016;-63.185;82.61;165.655;129.104;5.283;28.252;15.776;-51.907;9.567;-20.192;76.293;18.677;24.219
1330;-37.853;-116.197;-61.911;82.833;177.123;127.856;13.111;33.883;21.921;-49.786;8.881;-20.383;71.228;20.316;22.933
1340;-35.206;-111.83;-60.45;82.29;185.337;125.918;20.882;39.512;27.629;-47.994;7.981;-20.552;64.87;21.12;21.872
1350;-31.804;-107.85;-58.856;81.736;192.933;123.817;28.454;45.72;35.635;-47.802;6.823;-21.248;57.069;20.479;21.208
1360;-29.561;-103.537;-57.159;79.363;199.846;121.126;36.056;51.923;44.072;-48.856;5.535;-21.373;49.985;19.886;21.913
1370;-26.878;-98.066;-54.374;76.981;206.171;118.434;44.058;57.878;52.489;-51.041;3.513;-20.518;42.264;19.414;23.869
1380;-23.828;-92.446;-51.169;72.955;211.377;114.342;52.19;62.391;57.763;-52.316;1.674;-18.815;35.898;20.81;25.505
1390;-20.898;-86.493;-47.48;68.92;214.367;108.84;60.88;66.393;62.878;-52.438;-0.18;-17.56;30.509;22.275;26.678
1400;-17.744;-79.969;-42.347;65.039;217.515;102.902;69.061;70.269;68.612;-53.308;-1.696;-17.324;26.49;23.819;26.993
1410;-14.45;-73.304;-37.803;61.15;216.696;95.462;75.946;74.372;73.766;-55.819;-3.35;-16.545;22.145;23.84;27.098
1420;-11.223;-66.334;-31.756;59.292;214.547;88.028;80.905;79.571;78.901;-59.464;-4.217;-17.635;18.916;23.284;27.884
1430;-8.517;-58.295;-25.536;57.207;211.911;77.927;85.927;84.756;82.534;-63.273;-5.121;-17.891;17.773;23.093;28.458
1440;-6.819;-50.67;-20.889;54.078;206.083;67.69;90.781;90.496;85.565;-66.762;-5.861;-16.51;16.397;22.883;29.626
1450;-4.407;-44.307;-15.824;51.723;200.661;57.382;95.653;95.419;88.58;-70.717;-7.698;-14.412;14.455;23.074;30.116
1460;-2.63;-37.979;-11.223;49.37;192.435;48.749;100.157;97.76;91.174;-75.432;-9.658;-13.15;11.055;22.983;31.207
1470;0.544;-31.221;-5.853;46.735;183.952;39.403;104.644;98.526;93.233;-81.047;-12.823;-12.686;7.576;22.449;31.219
1480;4.175;-23.768;-1.622;44.103;174.67;31.151;107.888;99.219;94.904;-83.722;-14.963;-13.031;3.335;21.697;30.868
1490;5.63;-16.772;1.637;41.728;165.407;24.385;112.083;98.862;95.918;-84.722;-17.113;-13.248;0.933;21.107;30.038
1500;5.13;-8.6;4.411;39.356;155.175;17.602;116.27;98.491;97.574;-85.228;-18.6;-13.394;-0.487;20.675;29.283
1510;6.098;0.383;7.049;37.166;145.261;11.222;118.289;98.003;99.014;-86.509;-20.215;-12.112;-2.546;19.829;29.466
1520;9.892;9.129;10.617;34.98;134.972;5.214;120.274;97.502;99.359;-88.673;-21.726;-10.503;-4.475;18.958;30.247
1530;13.47;19.294;13.307;32.261;124.808;-0.216;120.013;97.726;100.874;-90.754;-22.777;-7.144;-5.984;18.807;31.185
1540;17.072;30.784;16.312;29.544;116.36;-5.632;119.864;97.856;102.376;-89.32;-23.776;-3.896;-8.016;17.608;31.984
1550;22.297;41.42;19.961;26.853;106.994;-10.609;119.906;96.78;103.779;-89.42;-24.686;-0.312;-10.411;16.939;32.438
1560;29.559;49.608;24.201;24.163;96.398;-15.542;119.994;95.97;105.129;-87.916;-24.619;1.423;-12.355;16.256;32.683
1570;37.408;56.735;29.471;20.897;85.428;-20.216;119.213;95.03;106.667;-87.343;-24.631;1.814;-13.943;16.176;32.487
1580;45.322;63.901;35.929;17.636;74.354;-25.375;117.504;93.536;108.263;-86.472;-25.081;3.717;-15.134;15.266;32.545
1590;54.617;70.677;43.74;13.651;64.258;-30.432;115.918;92.032;108.888;-85.98;-25.474;4.935;-16.052;14.895;32.629
1600;64.545;77.729;51.433;9.677;53.622;-35.411;114.485;89.183;106.245;-84.181;-25.629;7.548;-15.394;14.922;32.035
1610;75.173;85.375;58.954;6.012;42.749;-40.61;113.11;87.364;103.353;-82.038;-23.772;9.113;-16.376;15.388;31.36
1620;84.786;94.325;65.585;2.359;31.967;-45.857;111.087;84.911;100.97;-78.237;-20.662;9.702;-16.419;14.833;29.234
1630;91.833;105.136;73.118;-0.944;21.599;-51.517;108.987;83.528;100.689;-74.816;-17.55;11.713;-16.831;12.89;27.887
1640;97.757;113.859;79.689;-4.236;12.45;-57.627;106.078;82.151;101.239;-71.136;-14.307;13.954;-16.532;11.166;26.579
1650;103.275;120.143;84.934;-7.942;2.801;-62.228;103.273;79.408;101.055;-67.52;-11.443;17.233;-15.874;10.122;26.432
1660;108.896;126.228;89.338;-11.623;-6.063;-65.602;100.698;76.657;100.821;-63.179;-8.701;21.263;-14.28;10.314;26.135
1670;115.308;131.926;93.348;-15.262;-15.022;-68.648;98.154;73.865;100.788;-58.025;-7.067;28.946;-14.443;10.457;25.804
1680;122.124;136.811;97.133;-18.88;-24.397;-71.102;95.57;71.066;101.465;-52.02;-3.538;35.204;-15.087;10.318;24.555
1690;129.204;142.244;101.614;-21.436;-33.907;-74.804;93.297;68.429;102.133;-45.526;0.429;43.099;-16.534;10.38;23.307
1700;135.725;148.645;105.433;-24.311;-43.633;-79.78;91.086;66.786;101.86;-40.572;6.804;50.114;-17.606;10.504;21.583
1710;140.229;154.98;111.484;-26.881;-53.624;-84.72;89.585;65.123;101.579;-35.292;13.337;56.774;-18.318;10.633;19.555
1720;145.027;160.893;115.749;-29.32;-63.661;-89.001;88.025;64.631;100.958;-28.983;21.495;62.955;-18.544;10.38;18.087
1730;150.569;165.734;119.962;-31.732;-72.867;-92.573;86.496;64.133;100.389;-24.673;29.059;69.583;-17.695;9.361;16.315
1740;157.201;170.956;124.357;-34.259;-82.43;-96.186;83.593;64.356;99.73;-21.557;36.327;76.218;-16.93;8.343;15.408
1750;159.75;171.23;126.294;-39.67;-94.015;-101.868;76.181;61.087;95.964;-20.294;36.134;78.361;-19.774;6.92;13.328
1760;160.772;170.985;129.633;-45.523;-104.368;-106.949;70.328;55.663;91.959;-18.07;35.303;79.561;-22.823;5.537;11.43
1770;163.288;171.701;130.832;-51.375;-113.513;-112.119;65.145;52.084;88.669;-15.748;34.742;82.477;-24.407;4.16;8.701
1780;166.65;172.021;134.055;-56.324;-122.458;-116.764;60.361;48.655;84.752;-11.713;34.861;83.73;-25.614;2.463;6.123
1790;170.572;172.68;137.767;-61.273;-131.437;-121.342;56.75;45.931;81.314;-9.218;36.143;85.988;-26.537;1.41;3.065
1800;172.531;174.85;141.894;-65.741;-139.297;-125.102;51.779;43.186;77.137;-5.257;38.895;89.861;-26.783;0.458;-0.19
1810;172.425;179.506;144.174;-70.208;-146.677;-128.341;47.332;40.617;72.393;-0.255;40.527;95.436;-26.495;0.243;-2.597
1820;172.246;185.186;145.065;-73.455;-154.379;-131.24;43.428;38.047;67.23;3.846;43.786;102.788;-25.967;-0.208;-3.39
1830;171.692;191.127;146.992;-76.702;-161.53;-134.139;39.771;35.327;62.068;10.054;45.623;108.065;-25.154;-0.462;-4.743
1840;169.862;197.234;147.681;-79.781;-168.211;-136.367;36.211;32.897;57.708;14.462;44.781;114.066;-25.343;-1.203;-6.561
1850;167.259;203.335;148.192;-82.859;-173.772;-138.641;32.771;31.099;54.268;19.124;44.621;116.199;-26.491;-1.812;-8.061
1860;164.221;208.29;148.6;-86.247;-179.108;-139.716;29.441;28.673;49.757;23.579;42.284;119.102;-26.687;-2.545;-8.952
1870;162.439;211.549;148.964;-89.634;-185.003;-141.654;27.632;26.219;43.818;25.983;39.999;119.692;-26.179;-2.214;-9.163
1880;161.594;213.23;149.058;-92.909;-190.927;-143.592;25.877;24.05;37.879;28.312;37.941;118.603;-24.782;-1.939;-9.451
1890;160.686;215.866;148.914;-96.183;-196.451;-145.583;23.603;21.88;30.977;31.48;36.764;116.88;-24.254;-1.548;-10.037
1900;159.615;219.023;148.404;-99.048;-200.575;-147.553;21.349;20.992;24.132;35.331;36.916;116.302;-24.036;-1.754;-11.383
1910;157.774;220.543;148.561;-101.913;-204.552;-149.608;18.715;20.262;17.532;36.898;37.212;114.741;-24.354;-3;-12.537
1920;155.044;220.324;148.921;-104.815;-208.604;-152.196;17.622;18.814;10.814;39.025;37.629;111.655;-24.108;-4.345;-14.367
1930;152.261;218.423;149.577;-107.717;-211.606;-154.023;16.516;17.414;3.695;40.074;37.102;108.417;-22.577;-5.876;-15.357
1940;149.63;215.145;150.568;-109.829;-212.139;-154.458;14.81;15.72;-3.975;42.479;36.41;103.662;-20.854;-6.857;-16.308
1950;145.124;212.186;151.294;-111.941;-210.193;-153.982;13.159;13.142;-10.679;46.09;35.917;98.037;-19.174;-7.223;-15.906
1960;140.748;208.869;148.633;-114.044;-207.937;-152.651;11.748;10.633;-17.31;50.011;35.128;92.749;-18.45;-7.854;-14.597
1970;134.137;205.132;146.592;-116.754;-205.131;-151.388;10.406;9.301;-23.119;53.098;32.626;87.989;-17.807;-8.539;-13.182
1980;126.785;200.884;144.203;-119.52;-202.25;-148.476;8.783;7.968;-28.908;55.342;29.204;83.899;-17.244;-8.783;-12.127
1990;118.869;195.639;141.796;-121.542;-200.19;-145.716;7.299;6.566;-35.139;57.989;25.472;80.359;-16.146;-9.131;-11.061
2000;111.01;189.291;137.279;-123.563;-198.331;-142.956;5.706;5.17;-41.371;61.596;23.543;76.468;-15.05;-10.651;-10.119
2010;103.815;182.172;131.614;-125.691;-195.892;-140.841;3.473;3.146;-46.906;65.68;22.302;70.063;-14.286;-12.047;-9.601
2020;96.165;174.823;125.938;-128.192;-192.793;-138.302;1.281;-0.425;-51.429;70.737;21.288;61.943;-13.223;-13.127;-8.55
2030;88.441;167.154;119.454;-129.356;-190.327;-135.091;-0.99;-4.099;-55.641;74.593;20.394;53.094;-12.6;-13.148;-7.834
2040;81.102;158.306;112.621;-130.52;-186.634;-130.866;-3.228;-8.648;-59.372;78.319;17.786;40.705;-12.003;-13.113;-5.892
2050;73.793;148.683;103.757;-129.988;-183.502;-126.641;-5.145;-13.197;-63.103;82.023;15.274;28.872;-11.439;-13.175;-4.31
2060;67.332;137.779;95.75;-129.455;-179.756;-123.072;-7.097;-16.665;-66.036;83.611;13.643;15.519;-10.154;-13.754;-3.301
2070;59.811;124.713;88.114;-128.818;-174.33;-119.626;-8.96;-20.181;-68.646;85.395;12.945;1.909;-9.132;-14.298;-3.506
2080;52.076;109.938;79.034;-128.181;-168.687;-117.07;-10.011;-23.303;-71.506;84.418;13.679;-10.995;-8.546;-13.495;-3.27
2090;44.754;95.243;69.993;-126.857;-162.199;-115.046;-11.145;-26.668;-74.127;85.277;17.052;-23.806;-7.4;-12.643;-2.474
2100;36.974;81.079;61.153;-125.532;-157.861;-112.141;-12.599;-30.323;-76.828;87.908;20.681;-32.23;-5.179;-12.337;-1.585
2110;27.966;67.408;51.47;-122.909;-153.668;-108.788;-13.914;-34.262;-78.258;90.018;24.644;-41.036;-2.367;-12.495;-1.632
2120;17.84;52.084;41.353;-120.286;-147.075;-105.381;-17.07;-38.091;-78.821;93.764;27.687;-47.463;0.116;-12.574;-1.941
2130;8.338;36.196;30.549;-117.452;-139.995;-101.6;-19.985;-42.648;-79.021;97.029;30.564;-54.912;0.367;-12.225;-2.37
2140;-0.823;19.803;20.383;-114.619;-131.433;-97.003;-22.899;-47.206;-79.312;99.152;32.724;-61.647;0.487;-11.319;-2.612
2150;-9.581;3.96;11.233;-112.629;-123.705;-91.326;-25.607;-51.291;-79.425;102.245;33.87;-70.095;0.654;-10.21;-1.699
2160;-18.75;-10.657;2.469;-110.639;-115.859;-84.097;-27.048;-55.452;-80.203;105.819;35.079;-78.341;0.939;-8.614;-0.746
2170;-28.252;-23.519;-7.495;-107.444;-105.854;-76.868;-28.803;-59.27;-80.981;108.6;36.527;-86.086;1.314;-7.03;0.218
2180;-37.516;-34.792;-18.418;-104.25;-95.841;-68.99;-30.799;-62.892;-81.519;111.49;37.414;-93.374;1.12;-5.446;1.182
2190;-45.985;-44.572;-29.76;-99.67;-86.05;-61.73;-33.715;-66.494;-81.505;113.099;38.294;-101.302;1.312;-5.462;2.455
2200;-52.783;-53.959;-40.228;-95.091;-78.921;-52.697;-36.782;-69.021;-81.011;114.863;36.814;-108.526;1.575;-6.156;3.088
2210;-60.375;-63.469;-48.841;-90.701;-72.898;-43.005;-40.09;-71.548;-80.437;115.003;35.154;-115.673;2.138;-6.684;3.032
2220;-66.392;-73.75;-56.341;-86.31;-68.074;-33.314;-43.183;-74.452;-79.863;115.048;32.857;-122.615;2.31;-6.252;3.646
2230;-71.35;-83.113;-63.963;-81.105;-63.127;-24.425;-45.357;-77.605;-79.772;115.363;31.279;-130.614;2.757;-5.382;4.372
2240;-75.589;-91.359;-71.553;-75.203;-55.368;-15.207;-47.524;-80.113;-79.462;114.077;29.57;-139.258;2.879;-4.95;4.819
2250;-80.161;-99.21;-78.124;-64.865;-46.821;-7.145;-49.109;-82.434;-79.241;110.8;27.807;-148.121;2.811;-4.097;3.168
2260;-85.382;-107.29;-85.451;-53.886;-37.662;0.328;-51.048;-83.764;-79.305;107.15;26.168;-154.617;2.748;-3.519;2.742
2270;-90.874;-114.655;-91.792;-43.687;-28.063;10.321;-53.284;-83.377;-79.648;102.021;24.743;-160.153;3.077;-2.714;3.713
2280;-96.785;-121.692;-97.76;-34.44;-18.051;19.843;-55.04;-83.272;-79.779;96.579;22.799;-163.636;3.848;-2.225;4.797
2290;-103.836;-128.639;-103.124;-25.372;-8.199;28.524;-57.023;-82.166;-80.03;88.437;20.811;-163.53;4.221;-2.057;4.84
2300;-111.785;-135.828;-107.345;-16.019;1.516;39.248;-59.287;-81.197;-80.565;80.593;18.603;-162.419;5.297;-1.884;4.268
2310;-119.645;-143.157;-110.669;-6.666;12.211;50.106;-61.75;-80.487;-81.148;72.708;14.875;-158.73;5.497;-1.131;3.815
2320;-126.905;-149.672;-113.615;2.888;23.691;62.76;-63.974;-80.414;-82.219;63.121;10.926;-155.47;5.836;0.265;3.723
2330;-134.155;-155.514;-116.574;12.443;35.054;76.418;-65.983;-80.786;-83.491;54.691;7.273;-150.309;4.684;0.763;3.825
2340;-141.528;-161.183;-119.774;23.185;47.777;90.076;-68.234;-81.226;-84.763;48.316;5.221;-145.53;3.719;1.33;3.959
2350;-148.47;-167.731;-123.23;33.927;62.379;103.771;-70.125;-81.894;-85.284;40.221;3.375;-138.197;2.596;2.597;4.452
2360;-153.737;-174.643;-126.641;46.749;74.79;116.252;-72.417;-82.054;-86.116;32.68;3.244;-129.56;1.314;3.971;5.114
2370;-157.894;-180.425;-129.644;59.571;84.251;127.876;-73.548;-82.214;-86.734;26.789;2.913;-121.236;-0.117;5.337;5.697
2380;-162.388;-186.106;-133.462;73.45;94.07;138.157;-74.803;-82.354;-88.072;21.418;2.568;-113.168;-0.152;6.633;6.641
2390;-166.054;-190.69;-138.505;87.328;104.69;148.439;-75.178;-82.509;-89.41;16.04;3.732;-105.89;-0.989;6.801;7.306
2400;-168.954;-194.814;-143.53;100.531;115.607;155.625;-75.326;-82.814;-91.04;12.883;4.029;-97.65;-1.328;6.263;8.455
2410;-170.771;-198.941;-148.789;113.734;127.96;161.89;-76.548;-82.786;-92.415;12.005;4.698;-88.927;-1.001;6.094;8.909
2420;-172.393;-203.592;-154.17;123.716;138.422;167.556;-78.967;-83.379;-93.996;10.99;1.687;-80.581;-0.833;5.986;9.003
2430;-174.754;-209.121;-158.702;133.698;147.832;172.09;-81.807;-83.741;-95.189;10.655;1.108;-69.99;-1.436;6.415;9.714
2440;-178.137;-215.29;-161.935;140.338;154.001;177.317;-83.807;-84.102;-96.388;10.142;0.266;-58.458;-2.72;7.804;9.73
2450;-181.521;-221.771;-165.371;146.978;160.178;179.977;-86.097;-84.814;-98.039;10.986;-0.295;-47.222;0.028;8.997;10.339
2460;-184.07;-226.945;-169.35;151.673;168.959;180.916;-87.986;-85.346;-99.89;14.71;-0.87;-34.605;4.292;10.287;10.709
2470;-186.971;-230.844;-173.364;156.368;178.284;186.047;-89.717;-85.59;-102.001;18.51;-0.433;-20.986;8.953;10.098;10.426
2480;-190.466;-233.699;-177.337;159.447;189.142;190.641;-91.488;-86.377;-103.643;23.057;-0.316;-5.85;7.961;9.163;9.408
2490;-193.81;-235.876;-181.131;162.526;195.72;191.473;-93.142;-87.083;-105.099;28.69;-0.392;11.608;6.342;8.721;8.183
2500;-196.941;-237.574;-185.541;160.756;202.374;188.681;-94.131;-88.67;-105.872;33.96;0.377;29.086;4.04;8.335;8.479
2510;-199.799;-238.251;-189.592;158.8;207.241;185.89;-94.767;-89.899;-106.644;37.59;0.985;49.168;1.528;8.752;8.429
2520;-202.555;-238.91;-192.326;161.003;211.462;181.763;-95.382;-90.119;-106.543;42.466;1.855;65.636;-0.997;9.777;7.243
2530;-204.897;-239.063;-193.851;163.061;214.502;177.767;-96.317;-90.338;-106.731;47.735;4.283;81.421;-2.566;10.739;5.938
2540;-206.728;-238.961;-194.575;164.239;213.422;176.47;-96.735;-90.829;-106.639;56.644;8.746;96.768;-3.219;11.619;5.039
2550;-207.611;-238.988;-195.528;163.517;212.28;173.237;-96.833;-91.286;-106.281;64.334;13.403;112.332;-4.283;12.372;4.657
2560;-208.343;-239.022;-195.441;162.844;209.018;170.004;-97.055;-92.277;-105.924;71.669;20.499;127.01;-5.444;12.428;3.606
2570;-208.414;-238.166;-194.81;165.007;203.702;163.782;-97.277;-92.833;-104.434;80.121;28.862;141.324;-6.641;12.215;1.994
2580;-208.897;-237.13;-193.138;167.17;199.072;157.328;-97.196;-93.154;-102.549;88.932;37.128;153.681;-6.396;11.688;0.196
2590;-208.843;-236.349;-191.004;162.75;191.148;152.061;-97.555;-93.172;-99.957;95.583;44.555;166.012;-6.164;10.553;-1.932
2600;-207.474;-234.865;-188.03;158.331;182.92;146.048;-98.425;-93.19;-97.615;102.266;51.705;176.265;-6.863;9.221;-2.321
2610;-205.891;-233.098;-183.593;150.359;176.412;141.379;-99.123;-92.302;-95.354;106.87;58.094;185.91;-6.921;7.948;-2.35
2620;-204.828;-231.746;-178.324;142.386;171.27;136.583;-99.901;-91.359;-93.465;108.794;64.243;196.279;-6.539;6.77;-1.323
2630;-202.59;-230.003;-172.157;134.436;167.324;132.508;-100.644;-89.403;-91.735;110.797;70.523;207.263;-6.132;5.375;-1.051
2640;-199.972;-227.266;-165.262;126.485;162.508;128.339;-101.188;-87.588;-89.679;112.88;75.982;218.538;-4.992;4.232;-1.462
2650;-196.847;-225.123;-158.07;118.305;158.057;126.055;-101.717;-85.72;-87.68;111.234;82.236;229.29;-4.527;3.501;-2.477
2660;-194.07;-221.601;-150.917;110.124;151.406;123.659;-101.447;-84.334;-86.299;109.885;88.469;239.152;-3.899;2.459;-2.61
2670;-190.714;-216.466;-143.36;103.557;144.754;120.29;-100.081;-82.561;-84.15;107.032;95.222;248.029;-3.368;1.745;-2.479
2680;-185.487;-210.503;-134.568;96.99;138.203;116.92;-98.709;-80.106;-82.001;103.817;97.443;253.417;-1.488;0.448;-2.828
