timepoints (min);46: wc-2,- -1;47: wc-2,- -2;48: wc-2,- -3
720;-199.043;-3.627;-174.148
730;-190.454;5.203;-152.357
740;-183.28;13.293;-133.493
750;-177.247;19.539;-121.694
760;-172.001;25.089;-111.612
770;-157.359;30.645;-102.692
780;-144.43;35.696;-94.908
790;-132.95;47.612;-88.45
800;-123.152;58.46;-82.675
810;-116.497;69.614;-75.262
820;-110.569;77.149;-68.418
830;-105.274;84.179;-62.19
840;-100.529;90.76;-56.784
850;-88.932;115.148;-37.759
860;-83.344;141.877;-18.715
870;-77.729;168.549;-2.772
880;-72.085;195.288;10.264
890;-65.527;202.971;23.289
900;-57.122;205.96;35.422
910;-48.711;208.895;41.87
920;-40.294;211.93;48.311
930;-32.287;205.833;53.906
940;-23.705;199.684;51.918
950;-15.11;193.486;51.351
960;-6.501;191.063;50.765
970;2.1;186.238;45.587
980;3.914;181.373;42.335
990;5.74;176.5;39.09
1000;7.579;172.148;39.139
1010;8.978;164.72;37.828
1020;3.078;157.256;36.518
1030;-1.803;150.102;35.492
1040;-6.665;137.549;34.143
1050;-11.508;124.956;32.792
1060;-13.39;112.324;29.347
1070;-16.196;102.567;29.223
1080;-19.004;86.168;29.053
1090;-21.815;69.727;29.164
1100;-24.358;52.679;27.635
1110;-20.589;33.201;26.197
1120;-16.827;19.815;27.878
1130;-13.072;6.401;26.599
1140;-10.254;-7.866;25.527
1150;-12.627;-14.305;25.331
1160;-14.991;-20.755;26.131
1170;-17.346;-27.217;27.062
1180;-20.011;-29.795;28.828
1190;-22.503;-36.367;30.107
1200;-24.982;-42.932;30.08
1210;-27.447;-48.729;30.046
1220;-29.648;-52.173;29.324
1230;-28.64;-53.584;26.811
1240;-26.824;-55;24.288
1250;-25;-55.454;22.636
1260;-23.168;-48.93;22.24
1270;-20.797;-42.426;21.837
1280;-16.148;-35.942;22.946
1290;-11.498;-29.643;23.837
1300;-6.85;-23.488;25.089
1310;-1.748;-17.356;26.342
1320;5.467;-11.015;23.893
1330;12.674;1.901;19.971
1340;19.874;13.471;16.055
1350;26.817;25.016;14.212
1360;33.037;36.859;13.329
1370;39.253;40.712;12.446
1380;45.467;44.538;14.228
1390;51.284;48.337;17.654
1400;61.904;48.647;21.085
1410;72.527;44.894;23.386
1420;83.152;41.119;25.252
1430;94.057;35.823;27.298
1440;100.441;34.527;29.828
1450;101.928;29.23;30.068
1460;103.415;23.934;29.956
1470;104.992;17.81;30.524
1480;106.568;9.206;27.143
1490;104.145;3.877;24.011
1500;101.721;0.121;19.999
1510;99.526;-7.594;17.651
1520;97.33;-15.87;15.076
1530;93.414;-23.429;10.981
1540;90.153;-32.588;5.786
1550;86.83;-41.626;0.142
1560;83.508;-50.368;-5.502
1570;79.065;-59.186;-5.807
1580;74.65;-68.004;-4.749
1590;70.234;-75.622;-3.691
1600;65.819;-82.668;-4.31
1610;63.684;-89.713;-6.69
1620;62.528;-94.919;-9.069
1630;61.372;-101.564;-12.149
1640;60.217;-107.058;-17.455
1650;57.621;-112.552;-22.761
1660;50.194;-114.006;-27.17
1670;42.768;-116.462;-30.945
1680;35.342;-118.919;-34.52
1690;27.916;-121.375;-38.143
1700;22.552;-118.19;-41.771
1710;16.146;-114.592;-45.799
1720;9.741;-110.993;-50.068
1730;2.97;-106.954;-49.657
1740;3.679;-99.605;-50.206
1750;4.705;-93.057;-50.665
1760;5.731;-86.508;-51.844
1770;6.874;-79.537;-53.663
1780;7.978;-68.534;-55.828
1790;9.833;-57.531;-55.472
1800;11.688;-46.19;-55.548
1810;13.481;-39.57;-55.203
1820;13.954;-33.356;-59.618
1830;13.876;-27.142;-64.382
1840;13.797;-21.353;-69.774
1850;13.65;-20.444;-74.005
1860;11.662;-20.059;-77.992
1870;6.954;-20.571;-82.012
1880;2.537;-19.643;-85.353
1890;-1.881;-20.272;-85.989
1900;-6.299;-20.901;-86.294
1910;-8.397;-21.343;-87.159
1920;-10.523;-21.506;-85.411
1930;-12.648;-22.807;-83.912
1940;-14.774;-24.48;-82.412
1950;-14.339;-28.673;-83.516
1960;-13.601;-34.626;-84.261
1970;-12.863;-40.455;-85.006
1980;-12.126;-46.284;-84.752
1990;-13.468;-55.913;-83.538
2000;-14.961;-63.51;-82.324
2010;-16.455;-70.342;-80.399
2020;-17.949;-77.174;-77.833
2030;-22.832;-80.246;-76.268
2040;-26.935;-83.441;-74.488
2050;-31.039;-86.637;-72.029
2060;-35.142;-86.113;-67.53
2070;-38.353;-80.637;-62.796
2080;-41.564;-74.81;-57.382
2090;-44.637;-68.982;-53.408
2100;-47.71;-67.394;-49.248
2110;-51.897;-66.041;-45.568
2120;-53.363;-64.688;-40.568
2130;-54.263;-63.335;-34.299
2140;-55.164;-50.828;-30.79
2150;-55.919;-38.341;-26.699
2160;-54.273;-25.854;-23.084
2170;-52.421;-11.687;-21.509
2180;-47.321;3.025;-19.509
2190;-42.222;17.509;-18.109
2200;-38.483;28.113;-14.389
2210;-34.819;39.919;-5.863
2220;-29.206;51.407;4.124
2230;-23.592;62.895;12.472
2240;-20.178;72.95;24.502
2250;-16.516;81.526;36.16
2260;-13.612;89.404;47.058
2270;-10.709;91.723;56.629
2280;-6.206;85.753;67.2
2290;-1.702;79.783;77.771
2300;0.785;68.541;85.603
2310;3.272;58.043;91.395
2320;6.279;42.745;95.466
2330;11.185;27.371;99.069
2340;15.539;15.437;104.112
2350;19.894;12.623;107.754
2360;25.568;9.81;111.535
2370;29.197;7.699;113.996
2380;33.095;6.251;117.617
2390;36.993;-4.477;120.548
2400;40.531;-17.166;122.959
2410;43.822;-29.461;122.93
2420;47.127;-42.196;123.88
2430;46.992;-54.931;124.15
2440;46.857;-64.237;128.061
2450;49.108;-69.663;131.985
2460;51.676;-75.09;131.269
2470;52.604;-75.316;130.753
2480;53.321;-76.163;129.934
2490;54.039;-76.17;125.714
2500;54.756;-76.177;119.575
2510;55.859;-78.146;113.926
2520;56.092;-74.818;109.396
2530;56.326;-71.49;105.657
2540;56.559;-66.001;101.917
2550;58.105;-55.15;100.938
2560;58.268;-44.299;99.502
2570;58.43;-28.048;99.786
2580;56.473;-11.08;100.83
2590;55.254;3.703;101.743
2600;51.444;18.487;104.057
2610;47.634;29.458;107.65
2620;44.505;39.629;110.96
2630;43.08;50.641;113.11
2640;41.655;58.374;113.541
2650;40.23;67.094;113.074
2660;38.446;75.172;115.048
2670;34.937;82.371;114.982
2680;31.428;89.466;114.578
2690;27.919;93.401;110.534
2700;24.01;96.495;106.29
2710;19.383;104.661;102.535
2720;14.288;107.626;98.581
2730;9.873;110.592;88.786
2740;5.458;111.915;79.695
2750;2.338;112.761;72.524
2760;-1.196;114.688;68.113
2770;-3.97;116.401;64.061
2780;-5.83;115.175;59.728
2790;-7.691;111.789;58.876
2800;-9.317;108.403;57.099
2810;-9.463;107.953;55.083
2820;-11.727;102.648;44.131
2830;-13.99;97.343;32.702
2840;-15.874;95.479;21.273
2850;-15.279;93.862;12.59
2860;-17.45;96.685;2.759
2870;-19.621;99.509;-6.313
2880;-23.628;101.237;-15.406
2890;-27.634;106.246;-22.778
2900;-31.679;111.254;-29.79
2910;-35.723;111.942;-36.803
2920;-38.857;114.29;-41.775
2930;-40.49;116.637;-48.708
2940;-42.123;115.505;-56.343
2950;-43.756;113.379;-63.779
2960;-44.417;105.934;-71.295
2970;-37.054;98.488;-79.266
2980;-29.691;87.458;-81.397
2990;-22.328;79.388;-82.048
3000;-16.143;71.317;-82.203
3010;-6.439;61.967;-85.117
3020;3.266;52.865;-88.952
3030;12.444;46.923;-92.607
3040;21.622;39.301;-99.742
3050;19.266;31.575;-108.117
3060;16.91;20.61;-115.479
3070;16.637;9.644;-114.36
3080;13.913;1.48;-112.003
3090;11.189;-10.269;-109.059
3100;8.465;-22.018;-108.276
3110;8.094;-28.488;-109.717
3120;8.363;-35.917;-112.112
3130;8.708;-41.306;-117.266
3140;9.052;-46.895;-122.317
3150;9.255;-53.606;-128.204
3160;8.898;-55.996;-130.258
3170;8.479;-58.407;-132.608
3180;7.145;-64.978;-132.999
3190;5.811;-67.579;-133.43
3200;5.117;-70.539;-134.103
3210;4.499;-77.139;-134.752
3220;-4.156;-83.601;-134.4
3230;-12.131;-86.72;-133.848
3240;-20.106;-89.839;-134.832
3250;-27.895;-88.041;-131.295
3260;-39.142;-84.964;-127.924
3270;-47.429;-81.887;-123.633
3280;-55.716;-78.754;-118.062
3290;-64.127;-73.397;-111.45
3300;-60.949;-68.04;-103.597
3310;-60.571;-61.725;-98.291
3320;-60.193;-54.514;-92.95
3330;-57.557;-49.463;-88.69
3340;-54.921;-44.695;-86.239
3350;-52.606;-37.167;-84.119
3360;-50.29;-34.945;-79.905
3370;-48.724;-32.799;-75.731
3380;-45.959;-31.932;-68.749
3390;-43.193;-30.694;-61.974
3400;-40.428;-29.079;-52.159
3410;-37.143;-27.463;-46.101
3420;-32.019;-28.008;-37.403
3430;-26.895;-24.393;-28.574
3440;-21.771;-20.778;-19.414
3450;-17.652;-17.543;-13.654
3460;-12.334;-11.434;-7.583
3470;-7.015;-5.326;-2.513
3480;-2.108;4.068;1.677
3490;2.745;12.895;5.323
3500;7.117;16.083;4.448
3510;11.49;20.394;5.614
3520;12.73;24.834;6.717
3530;12.669;28.674;6.541
3540;12.608;32.328;9.921
3550;12.548;32.622;13.268
3560;15.08;32.393;18.974
3570;17.026;31.861;28.978
3580;18.972;29.848;37.975
3590;20.919;28.132;48.003
3600;23.399;23.657;55.67
3610;25.879;19.181;63.814
3620;28.145;13.926;72.156
3630;29.404;9.406;80.138
3640;30.663;4.885;89.148
3650;32.003;-3.177;95.117
3660;33.101;-10.68;99.847
3670;32.048;-15.023;100.35
3680;29.436;-22.811;99.934
3690;26.823;-30.006;99.572
3700;24.183;-37.24;102.983
3710;19.902;-45.215;106.074
3720;15.621;-53.19;108.986
3730;10.899;-63.953;112.778
3740;6.074;-73.556;116.101
3750;1.709;-83.159;119.486
3760;-2.657;-93.81;119.71
3770;-6.662;-104.621;119.818
3780;-8.788;-115.432;119.588
3790;-10.913;-127.229;115.459
3800;-13.039;-133.586;111.331
3810;-15.604;-139.943;107.509
3820;-15.949;-145.514;99.789
3830;-16.294;-147.388;92.069
3840;-16.639;-149.261;85.255
3850;-18.063;-148.997;80.801
3860;-18.985;-148.954;74.868
3870;-19.906;-147.912;68.623
3880;-20.828;-144.737;62.739
3890;-21.029;-141.851;54.455
3900;-23.428;-136.065;45.861
3910;-25.826;-127.479;39.586
3920;-28.225;-118.892;33.719
3930;-27.532;-105.586;28.957
3940;-26.792;-90.64;27.036
3950;-26.051;-75.694;25.377
3960;-25.31;-58.241;24.724
3970;-24.579;-40.349;23.782
3980;-23.36;-22.457;22.364
3990;-22.141;-6.372;22.746
4000;-20.921;9.103;22.501
4010;-21.039;24.579;24.923
4020;-21.578;38.735;27.2
4030;-22.117;52.174;29.477
4040;-22.657;65.612;31.88
4050;-23.446;79.508;34.71
4060;-23.829;92.775;36.701
4070;-24.212;106.146;39.043
4080;-24.479;115.917;41.385
4090;-24.425;125.688;44.847
4100;-23.291;133.957;48.957
4110;-22.143;135.706;54.548
4120;-20.486;137.455;58.492
4130;-18.708;136.575;62.658
4140;-17.65;136.775;63.903
4150;-16.806;136.975;65.577
4160;-16.444;134.686;65.763
4170;-16.163;134.156;64.017
4180;-17.881;133.626;62.27
4190;-19.786;128.39;59.137
4200;-21.746;123.63;56.051
4210;-23.706;118.87;51.885
4220;-24.306;112.514;46.793
4230;-24.706;105.938;41.811
4240;-25.106;99.244;33.149
4250;-25.506;94.63;24.852
4260;-23.266;90.017;15.636
4270;-20.854;85.161;7.594
4280;-18.441;78.706;-0.64
4290;-16.029;72.251;-8.434
4300;-13.097;63.335;-16.601
4310;-10.578;53.379;-24.248
4320;-8.059;43.423;-30.095
4330;-5.541;30.56;-35.928
4340;-2.742;17.697;-43.961
4350;-0.343;4.833;-51.746
4360;2.055;0.167;-59.179
4370;4.454;-4.451;-64.252
4380;4.312;-9.386;-69.119
4390;4.528;-13.161;-66.25
4400;4.745;-17.516;-63.512
4410;4.961;-21.732;-60.774
4420;3.674;-32.269;-55.753
4430;2.801;-43.061;-51.063
4440;1.928;-50.476;-49.974
4450;1.055;-57.291;-49.312
4460;0.782;-64.106;-48.65
4470;-0.869;-69.779;-46.188
4480;-2.52;-69.492;-43.539
4490;-4.171;-69.206;-38.411
4500;-5.048;-68.783;-32.695
4510;-7.457;-68.361;-27.193
4520;-9.865;-67.939;-24.771
4530;-12.542;-70.033;-22.728
4540;-15.499;-72.127;-20.366
4550;-18.568;-73.979;-19.723
4560;-21.637;-79.03;-19.135
4570;-24.706;-84.081;-18.668
4580;-27.924;-84.932;-18.145
4590;-31.742;-81.823;-16.966
4600;-35.56;-78.714;-12.119
4610;-39.337;-77.724;-7.465
4620;-42.691;-72.073;-2.651
4630;-43.846;-66.843;2.08
4640;-45.145;-63.852;4.692
4650;-46.444;-61.063;4.901
4660;-47.619;-58.737;5.164
4670;-47.48;-52.45;4.748
4680;-47.341;-45.273;4.524
4690;-47.201;-38.097;6.276
4700;-47.317;-29.774;8.601
4710;-48.113;-21.382;10.672
4720;-48.695;-12.99;11.662
4730;-49.277;-12.873;12.197
4740;-49.735;-12.756;12.319
4750;-49.499;-14.839;9.2
4760;-49.263;-16.826;6.268
4770;-49.028;-18.814;5.535
4780;-48.24;-17.003;4.754
4790;-46.092;-14.989;4.463
4800;-43.945;-12.975;5.578
4810;-41.735;-6.937;6.879
4820;-39.546;-1.542;6.499
4830;-37.037;3.701;5.942
4840;-34.687;5.863;5.592
4850;-32.337;7.93;2.866
4860;-30.2;9.975;0.299
4870;-27.77;7.872;-3.108
4880;-25.339;5.12;-5.477
4890;-22.971;2.368;-7.978
4900;-20.665;0.757;-9.377
4910;-14.959;0.084;-10.865
4920;-9.287;0.011;-11.313
4930;-3.615;-0.346;-12.618
4940;2.112;-0.234;-13.674
4950;9.568;-1.483;-16.717
4960;17.105;-3.12;-19.76
4970;24.641;-4.757;-22.892
4980;32.081;-2.074;-27.294
4990;37.441;1.057;-32.612
5000;41.561;4.188;-35.001
5010;45.73;6.706;-37.39
5020;49.884;9.528;-39.957
5030;51.639;12.35;-40.501
5040;52.389;12.912;-40.754
5050;53.139;13.473;-40.305
5060;53.89;14.324;-39.855
5070;55.509;15.474;-39.564
5080;57.088;16.625;-40.508
5090;58.578;16.93;-41.879
5100;60.068;17.377;-45.206
5110;62.559;17.906;-48.532
5120;64.617;17.876;-51.735
5130;66.674;16.61;-54.281
5140;68.732;15.343;-56.883
5150;70.772;12.517;-56.388
5160;69.212;8.539;-55.892
5170;67.652;4.561;-55.087
5180;64.561;0.019;-53.931
5190;61.574;-4.819;-52.906
5200;56.746;-9.658;-50.746
5210;52.037;-12.593;-48.586
5220;47.328;-14.839;-46.309
5230;42.24;-16.484;-42.207
5240;40.134;-18.233;-37.767
5250;38.028;-19.982;-34.458
5260;35.611;-18.251;-31.149
5270;33.899;-18.43;-27.902
5280;34.588;-20.89;-27.819
5290;35.152;-21.263;-28.068
5300;36.116;-21.534;-27.521
5310;37.183;-22.204;-26.975
5320;36.501;-23.123;-26.277
5330;35.818;-20.814;-21.451
5340;35.135;-19.098;-16.625
5350;33.668;-16.883;-10.279
5360;31.44;-14.508;-3.932
5370;29.212;-10.822;2.007
5380;25.654;-7.724;6.898
5390;22.047;-4.04;11.789
5400;18.72;1.044;14.07
5410;14.571;5.745;16.352
5420;10.422;10.342;18.923
5430;7.377;15.819;18.63
5440;5.251;22.345;18.338
5450;3.126;28.87;17.419
5460;1.654;33.436;16.501
5470;1.324;38.663;15.727
5480;0.994;45.211;15.291
5490;0.468;51.303;14.855
5500;-0.059;57.299;15.411
5510;-0.552;55.175;15.967
5520;-1.866;53.017;16.343
5530;-3.181;53.138;17.399
5540;-4.495;50.539;18.454
5550;-5.811;48.265;17.134
5560;-7.141;44.91;15.814
5570;-7.23;41.308;14.459
5580;-6.674;35.077;10.548
5590;-6.119;27.327;6.636
5600;-4.378;19.363;2.985
5610;-2.917;12.177;-0.666
5620;-1.457;4.632;-4.345
5630;1.011;-1.993;-8.786
5640;3.225;-8.112;-13.228
5650;5.439;-14.03;-18.545
5660;8.143;-21.949;-23.862
5670;11.688;-28.44;-29.248
5680;15.24;-35.811;-29.545
5690;18.474;-42.105;-29.841
5700;21.709;-47.537;-22.823
5710;24.943;-53.568;-15.806
5720;24.779;-60.124;-8.519
5730;24.615;-70.44;-4.399
5740;24.091;-80.756;-0.279
5750;22.4;-90.851;-1.13
5760;21.33;-89.866;-1.981
5770;20.57;-88.35;-2.756
5780;21.73;-86.862;-1.417
5790;22.89;-81.175;-0.16
5800;23.879;-75.488;2.928
5810;22.788;-68.99;6.099
5820;21.359;-66.492;9.27
5830;19.25;-63.912;10.126
5840;16.208;-56.971;10.981
5850;13.167;-49.768;9.691
5860;12.406;-43.703;8.401
5870;11.644;-31.567;7.588
5880;10.738;-19.43;8.425
5890;10.992;-11.044;9.641
5900;11.025;-2.658;13.495
5910;11.058;7.312;17.349
5920;8.316;19.847;21.106
5930;5.574;33.375;21.815
5940;2.139;49.383;22.786
5950;-3.175;65.102;18.05
5960;-8.497;81.301;13.492
5970;-11.458;90.251;8.935
5980;-13.783;99.036;7.607
5990;-16.109;104.455;6.279
6000;-16.999;109.633;10.607
6010;-15.208;108.523;14.935
6020;-13.418;108.012;19.16
6030;-13.295;107.309;24.694
6040;-13.172;102.566;30.228
6050;-13.194;98.346;31.28
6060;-13.578;94.486;32.332
6070;-14.217;95.859;32.937
6080;-14.855;97.654;32.503
6090;-16.629;99.503;32.015
6100;-18.403;101.353;30.811
6110;-21.756;103.741;29.731
6120;-24.583;99.208;28.651
6130;-27.259;94.09;25.593
6140;-30.655;91.091;22.535
6150;-32.479;87.993;19.721
6160;-34.302;84.826;16.908
6170;-34.542;80.968;14.349
6180;-34.582;77.124;14.669
6190;-34.353;69.84;14.989
6200;-30.898;62.996;15.857
6210;-27.332;56.179;16.724
6220;-23.767;59.05;17.461
6230;-20.041;61.761;17.286
6240;-16.316;68.666;16.897
6250;-12.79;74.411;15.182
6260;-12.767;79.666;13.295
6270;-12.743;75.321;11.808
6280;-12.766;71.397;6.988
6290;-13.109;69.793;2.167
6300;-13.659;63.189;0.306
6310;-11.81;56.606;-2.058
6320;-9.498;52.732;-5.982
6330;-7.186;49.508;-7.857
6340;-2.986;44.043;-9.731
6350;0.094;37.458;-10.79
6360;3.353;30.032;-11.85
6370;3.327;19.926;-13.177
6380;3.018;9.44;-13.687
6390;2.709;-0.114;-13.572
6400;0.258;-9.411;-14.752
6410;-2.193;-14.603;-16.363
6420;-2.167;-21;-17.974
6430;-2.223;-26.037;-16.309
6440;-1.619;-31.143;-14.644
6450;-2.575;-39.01;-11.949
6460;-4.208;-46.772;-9.447
6470;-5.841;-54.015;-9.705
6480;-10.286;-61.706;-9.703
6490;-14.806;-64.588;-11.902
6500;-18.046;-66.337;-13.93
6510;-20.698;-67.815;-15.957
6520;-20.926;-59.901;-17.68
6530;-21.063;-57.746;-18.968
6540;-19.632;-55.406;-21.825
6550;-18.503;-46.505;-23.366
6560;-16.575;-38.039;-26.332
6570;-16.095;-35.212;-27.588
6580;-14.895;-32.469;-28.459
6590;-13.661;-29.926;-29.159
6600;-12.261;-26.414;-30.634
6610;-10.854;-17.977;-32.31
6620;-6.487;-6.459;-32.946
6630;-2.601;6.206;-33.778
6640;1.284;17.767;-35.09
6650;7.317;25.681;-35.286
6660;12.992;29.236;-35.001
6670;18.248;29.553;-32.579
6680;23.505;28.51;-35.342
6690;27.266;26.774;-38.212
6700;31.028;26.557;-41.833
6710;35;25.321;-46.174
6720;38.972;22.61;-47.52
6730;43.625;20.777;-47.902
6740;48.739;13.858;-45.45
6750;51.974;5.617;-43.072
6760;55.394;-3.185;-40.335
6770;55.566;-14.106;-39.639
6780;55.537;-17.148;-40.937
6790;52.948;-19.265;-40.714
6800;49.876;-18.302;-41.301
6810;45.364;-17.284;-40.847
6820;40.839;-15.577;-39.006
6830;35.684;-13.869;-37.954
6840;30.392;-17.148;-35.663
6850;26.979;-20.171;-32.543
6860;24.153;-23.794;-28.423
6870;21.327;-27.177;-24.724
6880;18.588;-33.239;-20.081
6890;15.848;-39.721;-15.756
6900;13.545;-43.164;-15.257
6910;10.828;-46.724;-12.272
6920;8.269;-47.106;-11.887
6930;5.71;-47.543;-11.804
6940;1.672;-48.366;-12.041
6950;-2.367;-49.243;-13.248
6960;-6.166;-50.24;-13.708
6970;-9.943;-51.582;-15.167
6980;-11.201;-51.844;-17.273
6990;-12.777;-52.189;-20.219
7000;-13.67;-48.663;-23.339
7010;-14.716;-45.041;-26.739
7020;-18.081;-39.811;-28.625
7030;-21.474;-36.887;-28.473
7040;-19.948;-35.51;-28.066
7050;-18.048;-38.56;-27.548
7060;-18.589;-41.492;-26.005
7070;-19.006;-44.026;-25.223
7080;-18.429;-44.077;-22.87
7090;-17.756;-39.528;-21.35
7100;-18.243;-35.778;-20.003
7110;-17.723;-35.188;-19.71
7120;-17.203;-38.208;-20.189
7130;-15.691;-39.669;-20.491
7140;-14.262;-40.767;-20.513
7150;-12.452;-42.727;-18.983
7160;-10.643;-42.295;-18.134
7170;-8.036;-41.763;-18.737
7180;-5.429;-40.537;-19.299
7190;-2.039;-36.99;-20.676
7200;1.159;-32.537;-21.455
7210;5.356;-28.643;-20.847
7220;8.829;-25.211;-19.314
7230;9.342;-24.139;-19.163
7240;9.952;-23.054;-18.13
7250;8.09;-19.968;-15.537
7260;6.586;-16.503;-12.712
7270;8.061;-11.519;-7.207
7280;9.625;-6.803;-0.848
7290;9.163;-2.687;7.99
7300;8.383;0.698;18.326
7310;10.364;7.043;27.541
7320;12.069;13.698;34.527
7330;12.745;19.153;39.673
7340;11.337;26.008;40.663
7350;10.149;26.223;41.957
7360;7.088;27.514;41.792
7370;4.421;30.206;42.687
7380;3.73;32.559;44.662
7390;3.211;33.112;45.909
7400;1.846;34.106;50.316
7410;0.618;32.741;52.428
7420;-3.221;30.775;51.779
7430;-6.935;28.33;50.857
7440;-9.65;25.615;50.934
7450;-12.337;20.403;50.73
7460;-15.703;16.959;49.366
7470;-18.836;12.252;47.327
7480;-22.908;7.899;46.524
7490;-27.048;3.156;47.713
7500;-29.004;-5.632;47.542
7510;-31.277;-13.919;49.891
7520;-31.535;-22.8;49.994
7530;-31.931;-30.975;49.658
7540;-32.767;-37.686;46.917
7550;-33.444;-43.814;43.417
7560;-34.222;-53.378;39.487
7570;-34.815;-61.797;36.917
7580;-35.56;-71.423;32.314
7590;-32.601;-81.266;31.392
7600;-29.746;-85.05;30.731
7610;-24.903;-88.476;32.15
7620;-20.178;-91.491;33.294
7630;-16.432;-92.461;32.971
7640;-12.954;-89.03;31.168
7650;-11.025;-84.662;25.916
7660;-9.206;-78.334;21.223
7670;-8.186;-72.337;20.171
7680;-6.76;-65.659;20.239
7690;-6.694;-59.941;18.36
7700;-6.579;-48.342;16.721
7710;-6.545;-35.978;15.892
7720;-6.738;-24.094;16.103
7730;-5.966;-12.52;17.011
7740;-5.297;-3.866;16.079
7750;-2.941;4.022;16.72
7760;-0.585;9.19;15.152
7770;0.615;13.945;15.343
7780;1.843;17.139;16.134
7790;2.764;20.361;15.844
7800;3.623;21.983;14.701
7810;4.303;23.219;12.397
7820;5.846;22.455;9.804
7830;7.67;23.36;9.371
7840;7.061;25.105;9.13
7850;6.423;27.008;8.888
7860;2.847;31.632;8.323
7870;-1.247;36.145;7.957
7880;-6.241;42.574;7.953
7890;-10.657;46.33;9.891
7900;-12.349;51.923;11.709
7910;-14.572;55.945;13.167
7920;-14.476;61.298;16.905
7930;-14.455;66.419;20.011
7940;-13.154;68.527;26.037
7950;-11.923;66.262;31.719
7960;-10.919;58.607;33.48
7970;-9.625;51.839;33.763
7980;-9.261;41.291;33.445
7990;-9.069;33.523;34.043
8000;-9.574;24.313;32.48
8010;-10.223;17.495;30.852
8020;-9.592;11.476;27.299
8030;-8.484;6.779;24.826
8040;-7.971;3.477;23.116
8050;-8.31;2.407;21.086
8060;-8.657;1.654;20.996
8070;-11.741;3.981;19.386
8080;-15.052;6.659;17.132
8090;-17.404;10.978;13.759
8100;-20.183;15.793;11.023
8110;-18.946;19.488;8.488
