timepoints (min);31: frq9-.2;32: frq9-.3;33: frq10-.1;34: frq10-.2;35: frq10-.3;36: wc-1+.1;37: wc-1+.2;38: wc-1+.3;39: wc-2+.1;40: wc-2+.2;41: wc-2+.3;42: wc-1-.1;43: wc-1-.2;44: wc-1-.3;45: wc-2-.1
1020;-247.744;-131.784;96.534;-223.398;-97.068;-92.511;-90.828;-153.501;-180.712;-42.301;-111.268;-90.423;-46.957;-102.817;-196.623
1030;-237.149;-124.548;94.763;-213.797;-87.668;-87.533;-85.921;-145.245;-181.446;-43.27;-107.008;-83.983;-36.456;-94.633;-183.604
1040;-227.573;-117.827;91.24;-205.56;-80.16;-81.293;-82.587;-135.893;-182.16;-44.213;-103.347;-80;-27.693;-88.053;-172.413
1050;-219.211;-111.993;88.234;-194.102;-73.944;-74.921;-79.155;-127.444;-175.543;-45.132;-100.171;-74.513;-24.082;-82.283;-162.704
1060;-211.788;-107.908;84.643;-184.059;-68.517;-70.692;-76.226;-119.322;-169.768;-46.026;-92.277;-69.67;-24.011;-75.698;-154.942
1070;-205.342;-104.376;82.231;-175.179;-62.585;-67.91;-72.098;-111.936;-164.692;-45.124;-85.282;-63.479;-24.021;-69.868;-148.132
1080;-199.967;-102.723;80.124;-165.342;-57.273;-65.353;-69.161;-104.893;-160.204;-44.382;-79.045;-58.71;-22.895;-65.239;-142.122
1090;-194.975;-101.275;79.025;-156.538;-51.163;-62.438;-67.7;-97.337;-156.212;-43.775;-73.45;-55.225;-23.063;-61.487;-134.387
1100;-190.556;-100.171;78.063;-148.723;-45.69;-59.739;-64.848;-90.679;-152.374;-43.28;-65.263;-52.337;-23.279;-56.993;-127.466
1110;-185.795;-97.843;77.902;-141.681;-43.44;-57.596;-62.298;-85.926;-148.907;-42.686;-57.519;-49.741;-22.049;-52.917;-121.243
1120;-180.736;-95.782;74.155;-135.199;-41.481;-55.547;-58.961;-82.971;-142.023;-42.178;-50.443;-46.813;-20.698;-49.615;-116.053
1130;-176.125;-93.089;70.548;-129.262;-39.19;-53.804;-57.357;-80.071;-135.732;-41.744;-44.452;-44;-21.661;-47.071;-111.345
1140;-171.689;-90.113;66.616;-123.842;-36.087;-51.694;-57.052;-77.228;-129.962;-41.374;-38.936;-41.374;-22.273;-44.729;-107.059
1150;-149.818;-69.432;60.468;-114.034;-21.039;-39.939;-51.754;-61.776;-122.144;-40.207;-30.055;-24.002;-18.542;-27.272;-92.1
1160;-127.954;-48.737;59.355;-104.213;-5.821;-28.456;-46.442;-45.861;-114.318;-39.03;-21.185;-6.626;-13.547;-10.268;-77.125
1170;-114.729;-39.591;57.879;-94.64;4.309;-17.59;-39.731;-34.971;-106.679;-37.842;-14.206;0.965;-8.637;4.087;-62.135
1180;-101.686;-30.904;56.175;-84.848;14.463;-11.88;-32.343;-30.243;-99.029;-36.644;-7.124;4.421;-4.763;10.506;-47.197
1190;-92.889;-25.036;51.138;-75.038;22.109;-6.873;-26.649;-28.864;-90.969;-36.02;-0.056;6.844;-0.124;13.611;-38.524
1200;-84.102;-19.189;48.869;-64.676;29.748;-4.7;-24.065;-28.662;-82.898;-35.388;7.001;8.604;2.727;16.6;-29.836
1210;-77.882;-17.322;46.493;-54.297;32.046;-3.294;-21.467;-27.644;-74.818;-34.748;12.767;10.377;4.689;17.404;-21.134
1220;-72.743;-15.218;43.561;-43.652;33.201;-1.963;-20.455;-24.538;-66.729;-34.101;18.359;10.831;5.4;17.771;-16.479
1230;-67.746;-15.459;40.589;-32.196;33.193;-1.956;-19.543;-18.351;-58.63;-34.254;23.944;10.659;5.848;17.663;-11.809
1240;-64.164;-15.547;33.314;-20.739;31.339;-2.375;-18.716;-12.758;-50.712;-34.4;29.522;11.699;5.156;17.055;-7.126
1250;-60.307;-15.269;26.053;-9.71;29.488;-2.343;-18.24;-7.389;-42.781;-34.54;35.053;11.25;5.213;15.872;-3.288
1260;-57.192;-14.971;19.319;1.329;28.881;-1.22;-17.758;-2.993;-32.678;-34.674;40.618;10.806;5.392;15.421;0.563
1270;-54.317;-14.924;15.684;12.481;28.24;-0.088;-17.584;-0.407;-22.563;-34.1;43.416;9.458;7.222;14.932;4.424
1280;-51.316;-14.41;12.654;18.322;29.16;1.998;-17.432;0.55;-12.437;-33.522;46.206;9.617;2.11;14.256;6.867
1290;-48.42;-14.03;8.94;24.29;30.17;3.65;-17.09;0.64;-2.3;-32.94;48.51;11;-3.16;13.51;9.32
1300;-45.686;-13.669;5.22;26.944;30.744;3.839;-16.438;1.198;3.168;-32.355;50.728;10.764;-6.182;13.137;11.783
1310;-42.614;-13.034;1.358;29.603;30.46;4.836;-15.775;2.237;8.705;-30.057;49.46;10.529;-5.562;11.928;14.083
1320;-39.66;-12.976;-1.028;32.267;29.417;6.086;-15.742;3.233;14.251;-28.996;48.188;8.705;-6.038;10.858;16.389
1330;-36.125;-11.637;-3.675;32.696;28.29;6.726;-15.307;3.39;19.806;-27.933;46.07;7.772;-9.029;10.877;18.702
1340;-32.583;-9.922;-7.741;33.149;25.878;8.162;-13.825;2.99;25.69;-26.867;43.901;7.349;-11.213;10.966;18.32
1350;-28.975;-8.483;-11.805;33.046;23.914;9.621;-14.037;2.368;31.581;-25.104;39.088;6.546;-12.399;10.298;17.948
1360;-26.03;-7.143;-15.649;32.947;24.681;11.222;-14.247;3.861;37.481;-23.338;34.511;5.756;-13.841;10.579;17.584
1370;-23.896;-5.292;-16.3;33.726;25.455;10.985;-15.377;6.696;39.948;-21.568;29.931;4.83;-15.4;10.697;17.642
1380;-21.663;-4.27;-16.856;34.47;26.229;11.226;-14.561;8.967;42.423;-19.795;26.048;3.399;-13.779;11.843;17.831
1390;-19.229;-3.329;-17.02;35.164;26.075;12.005;-12.169;11.251;45.015;-19.218;22.158;2.993;-12.722;12.909;18.031
1400;-16.738;-2.296;-17.823;36.623;25.688;11.272;-9.054;13.461;47.611;-19.038;18.981;2.681;-12.097;15.33;18.44
1410;-13.069;-1.358;-23.667;38.088;24.869;10.811;-5.932;14.798;48.973;-18.855;15.538;2.378;-14.505;15.699;18.856
1420;-9.714;-1.767;-30.625;39.376;24.052;11.644;-3.968;15.745;50.339;-18.669;13.973;2.491;-15.868;15.485;19.279
1430;-6.741;-2.094;-37.017;40.468;23.07;12.748;-2.784;17.939;51.711;-17.592;12.406;3.947;-15.189;14.755;19.708
1440;-4.317;-4.417;-39.212;41.696;21.723;12.882;-0.346;20.685;52.687;-15.873;11.837;3.209;-14.372;14.619;19.744
1450;-1.869;-6.733;-41.136;41.686;20.861;14.118;2.544;23.524;53.668;-14.153;11.093;2.649;-15.761;14.589;19.783
1460;1.751;-7.348;-41.632;41.678;20.242;15.519;5.437;24.868;54.516;-12.432;11.631;2.092;-18.189;14.026;19.825
1470;5.679;-8.16;-42.575;42.005;20.306;16.338;6.88;25.887;55.371;-8.908;12.169;2.755;-19.895;13.306;19.873
1480;10.134;-9.233;-42.638;41.533;21.632;16.843;7.585;26.67;55.912;-4.546;12.909;3.38;-20.939;12.365;19.924
1490;14.83;-10.465;-39.468;41.062;24.363;17.113;7.907;27.642;56.46;-0.185;13.617;3.405;-21.552;11.953;19.98
1500;19.203;-11.721;-36.538;42.271;27.492;16.479;8.591;29.538;57.014;4.175;14.366;4.057;-24.289;12.176;20.22
1510;24.226;-12.335;-32.749;43.48;29.314;16.212;9.277;32.653;55.414;7.931;15.116;4.714;-25.838;12.402;20.466
1520;29.159;-11.972;-30.801;43.737;29.974;15.928;10.927;34.956;53.82;11.087;15.548;5.092;-26.606;13.014;20.716
1530;33.623;-10.967;-29.412;44.116;27.696;14.569;13.449;36.104;52.304;14.244;15.691;5.392;-24.613;13.774;20.636
1540;37.696;-9.976;-28.712;44.512;25.416;12.528;15.232;36.656;50.792;17.4;16.32;5.4;-22.128;14.4;20.56
1550;40.902;-6.583;-27.99;43.83;22.606;11.059;15.002;37.567;50.045;19.452;16.955;5.695;-19.594;14.469;20.488
1560;43.882;-3.44;-28.304;43.148;20.779;10.309;14.775;38.05;49.302;19.822;17.436;5.995;-19.019;14.637;20.801
1570;46.983;0.148;-30.624;41.955;19.789;9.6;14.399;38.13;48.563;20.191;18.063;6.468;-17.582;14.984;21.117
1580;49.976;3.642;-32.231;41.523;18.743;8.218;15.124;37.696;47.828;20.558;19.533;6.14;-12.826;14.914;21.434
1590;52.902;5.303;-32.765;41.098;19.255;5.752;15.786;36.872;46.777;21.54;21.166;5.54;-8.551;14.729;22.182
1600;55.796;6.834;-33.327;40.914;18.318;3.965;17.089;35.676;45.806;21.76;22.803;5.49;-5.161;14.553;23.252
1610;58.623;6.951;-34.15;40.731;16.956;3.108;18.394;34.358;44.838;21.978;24.498;5.448;-5.301;13.386;24.325
1620;61.309;7.08;-34.861;40.572;13.476;3.183;20.079;34.064;43.872;22.195;26.192;5.869;-6.135;12.558;25.177
1630;63.686;6.435;-35.001;40.416;9.178;2.973;20.971;33.733;42.109;23.629;27.684;6.355;-8.362;10.97;25.474
1640;65.563;5.804;-34.633;40.099;5.844;1.713;22.864;33.301;40.348;26.261;28.938;4.879;-8.619;9.901;25.778
1650;66.929;5.003;-34.128;39.027;4.101;1.122;24.379;31.898;38.59;28.892;29.474;2.842;-7.182;7.954;26.088
1660;67.614;5.653;-33.466;37.959;3.159;1.243;25.897;30.839;38.074;31.522;30.012;0.813;-3.182;7.426;27.269
1670;68.243;7.323;-32.417;37.063;2.095;2.253;25.682;30.052;37.415;33.897;30.552;0.008;-0.43;7.222;28.456
1680;70.083;9.319;-31.444;36.172;0.971;3.021;25.821;29.542;36.76;35.472;30.994;-1.364;-0.191;6.902;29.647
1690;71.797;12.589;-30.003;35.356;-0.23;0.671;26.27;28.919;36.11;37.047;30.439;-1.309;0.429;6.72;31.666
1700;73.603;16.264;-28.381;36.143;-1.645;-1.521;25.547;28.652;34.584;38.623;29.887;-1.119;3.089;5.936;33.687
1710;73.918;19.568;-26.652;36.933;-3.059;-2.576;24.826;28.868;33.062;39.531;28.298;-0.926;6.554;6.034;35.711
1720;74.224;23.036;-24.94;37.126;-4.895;-3.877;24.359;28.583;31.543;38.8;26.839;-1.271;9.74;5.963;37.055
1730;74.098;26.424;-23.851;37.321;-7.198;-5.053;25.122;28.616;30.349;38.069;25.181;-0.163;13.246;6.97;38.403
1740;74.263;28.058;-23.412;37.492;-9.495;-5.964;26.28;28.666;29.159;37.339;23.524;-0.817;15.676;7.825;39.753
1750;69.621;25.879;-22.221;33.433;-13.983;-7.268;25.505;24.433;26.459;36.131;19.688;-4.796;16.497;5.553;36.986
1760;64.088;23.059;-22.808;29.374;-19.472;-9.531;24.73;19.331;23.76;35.443;15.88;-8.775;15.437;3.299;34.219
1770;60.492;22.15;-23.21;27.114;-24.597;-13.534;23.397;16.283;21.741;34.754;12.392;-10.35;13.317;0.796;31.452
1780;57.977;21.841;-21.668;24.855;-28.32;-15.363;21.455;15.357;19.721;34.066;8.503;-10.323;16.217;-0.072;28.328
1790;56.295;22.236;-16.239;22.692;-30.408;-15.935;20.472;14.894;17.702;33.199;4.615;-9.073;16.625;-0.087;26.328
1800;55.574;20.63;-11.375;22.41;-31.291;-16.461;21.608;14.481;14.923;33.531;0.617;-8.288;17.223;-0.423;24.328
1810;54.56;19.535;-6.044;22.168;-30.266;-18.066;22.745;13.589;12.143;33.863;-3.222;-7.503;17.884;-1.01;22.592
1820;53.433;17.352;-0.541;21.567;-30.221;-19.764;24.054;12.15;9.454;34.196;-6.461;-7.796;19.63;-1.265;21.625
1830;51.086;15.644;4.366;20.966;-30.175;-20.036;23.334;10.881;6.764;34.532;-9.699;-8.437;19.847;-1.677;20.658
1840;49.324;14.498;11.15;20.294;-30.699;-20.495;22.248;9.626;4.794;34.269;-13.208;-8.897;21.294;-1.055;19.836
1850;46.643;14.628;17.887;19.92;-30.273;-21.554;21.538;9.783;2.825;34.006;-16.717;-9.091;21.614;-0.908;18.743
1860;44.192;14.829;25.288;19.491;-29.833;-22.309;20.828;9.625;0.855;33.742;-20.386;-9.286;23.774;-1.335;17.651
1870;41.403;16.51;32.172;17.582;-27.677;-21.91;20.481;9.428;-1.114;33.134;-23.552;-9.683;26.11;-1.476;16.559
1880;38.84;18.706;36.36;16.57;-25.521;-22.703;20.386;10.123;-2.284;31.286;-26.517;-10.615;29.866;-1.92;16.301
1890;36.312;20.317;37.741;15.153;-23.726;-23.429;19.076;11.052;-3.385;29.437;-29.483;-11.174;31.913;-2.597;16.043
1900;35.023;22.195;39.328;14.252;-23.178;-23.339;17.804;11.011;-3.679;27.589;-32.128;-11.592;31.934;-3.706;15.785
1910;33.324;23.01;41.165;13.331;-23.037;-24.077;16.532;10.546;-4.212;25.49;-34.194;-12.01;29.928;-3.71;14.01
1920;32.185;23.687;43.43;12.45;-22.647;-25.666;16.632;11.022;-4.746;23.764;-36.261;-12.905;28.219;-4.371;12.234
1930;30.425;22.792;46.81;11.823;-21.897;-27.339;16.004;10.839;-5.28;22.039;-38.327;-12.908;26.323;-5.19;10.459
1940;28.593;22;49.753;11.09;-19.888;-27.132;13.168;10.752;-5.814;20.313;-40.193;-11.908;24.051;-5.763;9.359
1950;26.681;22.048;52.593;9.423;-18.059;-27.51;11.487;11.021;-5.468;18.833;-41.728;-10.81;21.299;-5.484;8.258
1960;24.866;22.469;52.585;7.764;-17.004;-28.946;9.806;11.033;-4.921;17.993;-42.223;-9.712;19.234;-5.506;7.157
1970;24.088;20.81;51.908;6.665;-16.214;-29.528;9.877;8.992;-3.782;17.153;-42.719;-8.41;17.705;-5.872;7.193
1980;23.668;19.068;50.39;5.572;-14.621;-30.112;9.572;6.775;-2.643;16.313;-44.257;-8.821;17.143;-7.152;7.229
1990;23.854;19.859;48.996;4.727;-13.121;-30.255;8.11;4.735;-1.983;15.48;-45.815;-8.557;17.502;-8.618;7.265
2000;24.2;20.692;50.167;4.314;-11.622;-31.559;6.85;3.612;-1.324;14.796;-45.974;-7.632;18.92;-9.877;6.708
2010;24.519;22.088;53.146;3.909;-10.148;-32.041;5.589;2.303;-0.665;14.112;-44.972;-6.706;20.852;-10.692;6.15
2020;24.539;23.622;56.167;2.503;-6.828;-31.272;4.258;2.586;-0.686;13.428;-44.295;-6.534;21.698;-10.647;5.593
2030;23.959;23.632;56.041;1.132;-3.101;-31.342;3.32;2.314;-0.541;12.399;-43.121;-8.196;17.49;-10.592;4.775
2040;23.28;22.913;54.272;-0.804;-0.21;-31.913;1.102;2.076;-0.327;11.459;-41.948;-11.143;14.759;-10.51;3.079
2050;21.481;21.766;51.505;-2.877;2.681;-32.346;-0.97;1.17;-0.113;10.52;-39.974;-12.87;12.994;-11.719;1.382
2060;19.517;19.439;49.643;-4.95;4.23;-33.154;-3.041;0.35;0.741;9.581;-38.221;-14.597;11.514;-11.692;-0.301
2070;16.473;17.512;47.657;-6.543;5.953;-34.168;-5.454;0.17;1.594;7.957;-37.061;-14.865;9.786;-12.079;-1.71
2080;14.079;15.014;45.353;-7.999;8.156;-35.139;-7.321;0.317;2.448;6.309;-35.901;-15.137;6.908;-12.414;-3.12
2090;11.297;13.394;40.48;-9.528;9.161;-35.539;-7.632;-0.992;2.582;4.661;-34.581;-15.861;1.909;-13.513;-4.564
2100;10.847;10.495;36.975;-10.996;7.887;-36.258;-8.258;-0.994;2.716;3.012;-33.206;-16.063;-1.549;-14.08;-5.157
2110;10.328;8.03;33.066;-12.505;6.788;-39.4;-8.884;-1.477;3.174;1.833;-31.67;-16.266;-5.233;-13.847;-5.75
2120;10.69;3.833;29.578;-13.254;6.161;-41.422;-10.007;-2.335;3.632;1.157;-30.135;-17.349;-7.063;-13.63;-6.343
2130;10.782;-0.364;25.617;-14.023;6.084;-41.977;-10.748;-3.601;3.73;0.481;-27.16;-17.687;-9.741;-13.244;-7.051
2140;11.716;-3.841;23.588;-14.359;5.579;-42.843;-11.817;-3.84;3.828;-0.194;-24.095;-16.44;-12.167;-13.528;-7.759
2150;12.364;-7.498;21.316;-14.79;4.639;-44.757;-13.182;-2.44;3.926;-1.288;-21.35;-15.92;-14.268;-13.836;-8.466
2160;12.992;-10.315;19.734;-15.257;3.695;-45.866;-14.548;-1.055;4.263;-1.972;-18.606;-15.4;-15.007;-14.037;-9.163
2170;12.499;-12.986;18.779;-15.963;2.752;-46.822;-16.021;-0.222;4.601;-2.657;-16.581;-14.957;-15.316;-13.345;-9.859
2180;12.262;-13.996;16.359;-16.8;1.839;-47.863;-16.713;0.89;4.912;-3.341;-14.749;-15.2;-17.699;-12.001;-10.556
2190;11.539;-14.937;13.894;-17.673;-0.039;-49.137;-16.708;1.885;5.277;-4.132;-13.117;-17.268;-21.443;-11.517;-11.677
2200;10.982;-16.473;11.273;-18.615;-2;-49.949;-17.094;0.844;5.243;-5.073;-11.486;-18.89;-24.623;-11.363;-12.799
2210;10.873;-16.857;9.963;-19.474;-2.628;-49.281;-17.48;1.048;5.208;-6.014;-11.372;-20.512;-24.319;-11.594;-13.92
2220;10.924;-15.072;8.59;-19.655;-3.255;-49.655;-19.961;2.877;5.174;-6.954;-11.342;-22.252;-23.199;-11.717;-14.385
2230;10.899;-11.647;6.141;-19.774;-3.601;-50.395;-22.354;4.837;5.139;-7.961;-10.352;-24.199;-23.157;-11.589;-14.829
2240;9.898;-8.636;3.643;-19.252;-3.674;-50.114;-24.044;5.461;5.585;-9.175;-8.081;-25.701;-25.095;-10.663;-15.273
2250;8.994;-6.73;-2.338;-18.607;-4.589;-49.604;-25.418;5.473;6.161;-10.389;-5.687;-26.575;-27.334;-9.188;-14.975
2260;8.681;-5.317;-8.719;-17.913;-4.465;-50.309;-26.792;5.916;6.524;-11.603;-4.48;-27.45;-29.564;-8.854;-15.037
2270;8.848;-6.481;-15.72;-17.214;-4.541;-51.25;-27.451;4.15;7.687;-12.338;-3.273;-27.724;-28.552;-9.055;-15.099
2280;8.905;-7.339;-19.181;-16.39;-4.394;-51.494;-29.181;2.385;8.85;-12.535;-1.506;-27.306;-27.466;-9.724;-15.092
2290;9.881;-7.265;-22.641;-15.367;-4.288;-51.481;-29.757;0.132;10.012;-12.732;0.433;-26.659;-27.261;-11.234;-15.028
2300;11.59;-7.583;-25.943;-14.454;-4.894;-50.91;-30.141;-1.095;11.175;-12.93;1.503;-27.04;-28.057;-12.17;-14.963
2310;13.908;-7.186;-30.606;-13.72;-5.396;-50.095;-30.524;-3.032;11.698;-13.05;2.574;-27.421;-27.644;-12.777;-14.753
2320;16.172;-6.534;-35.999;-12.505;-5.421;-49.317;-29.927;-5.265;12.234;-12.127;2.924;-28.108;-29.258;-12.822;-14.657
2330;18.382;-4.761;-39.099;-11.4;-4.695;-48.938;-28.818;-7.615;12.716;-11.204;3.281;-27.684;-30.087;-13.269;-14.56
2340;19.312;-3.41;-42.131;-10.135;-3.97;-49.153;-29.077;-11.16;13.197;-10.281;3.479;-26.559;-29.572;-13.628;-14.463
2350;19.097;-2.738;-44.76;-8.519;-1.498;-48.651;-29.472;-14.378;14.119;-9.469;3.676;-26.767;-30.119;-14.005;-14.503
2360;18.414;-2.059;-47.748;-6.909;1.019;-47.308;-29.866;-16.356;15.04;-9.146;3.713;-26.975;-30.291;-14.017;-14.543
2370;16.474;-0.193;-50.735;-5.811;3.777;-46.142;-29.67;-18.448;15.961;-8.823;3.743;-26.601;-33.47;-14.086;-14.583
2380;14.356;1.859;-52.102;-4.623;5.601;-44.903;-29.27;-20.775;17.243;-8.501;2.334;-26.39;-36.974;-14.417;-13.72
2390;11.477;3.272;-54.324;-3.916;7.426;-42.968;-29.636;-23.612;18.428;-8.146;0.924;-27.921;-39.077;-14.697;-12.857
2400;7.999;3.931;-55.97;-3.491;8.513;-40.414;-30.388;-25.964;19.743;-7.519;0.154;-28.175;-41.775;-14.737;-11.993
2410;7.295;3.338;-58.217;-3.286;9.52;-38;-31.139;-27.821;21.059;-6.891;-0.622;-28.429;-43.63;-14.348;-10.063
2420;7.276;5.317;-60.077;-2.937;10.632;-35.888;-31.039;-29.87;21.855;-6.263;-0.679;-28.932;-46.088;-14.531;-8.134
2430;8.688;6.894;-60.748;-2.65;11.677;-33.56;-30.52;-31.982;22.651;-6.377;-0.735;-28.723;-46.458;-15.324;-6.204
2440;8.621;10.302;-61.108;-1.683;13.672;-29.993;-30.254;-33.68;23.447;-6.306;-0.124;-27.206;-45.167;-16.317;-5.553
2450;8.56;12.728;-61.459;-0.743;15.919;-26.356;-29.4;-34.341;24.643;-6.236;0.383;-28.406;-42.128;-16.512;-4.847
2460;7.433;14.454;-61.01;0.447;17.206;-24.455;-28.546;-35.044;25.839;-6.166;2.451;-29.606;-42.628;-15.999;-4.141
2470;5.327;16.497;-58.676;1.103;17.488;-22.177;-26.225;-35.524;27.062;-6.663;4.359;-29.668;-44.45;-15.661;-4.731
2480;4.468;16.617;-54.134;1.877;16.521;-19.017;-24.018;-36.359;28.148;-7.068;6.232;-27.255;-47.21;-14.723;-5.597
2490;4.248;17.012;-49.447;1.331;15.48;-16.909;-21.622;-36.143;28.833;-7.472;6.646;-25.294;-49.023;-14.899;-6.463
2500;4.063;17.474;-45.601;0.778;15.65;-14.841;-19.553;-35.132;29.519;-7.876;7.059;-24.632;-50.44;-15.56;-7.35
2510;3.521;18.15;-41.881;0.29;15.819;-11.577;-17.484;-34.274;30.204;-7.486;7.593;-23.97;-51.908;-16.258;-7.379
2520;2.509;22.106;-39.908;-0.165;16.567;-7.759;-16.055;-33.023;30.09;-7.643;8.01;-23.982;-55.255;-16.396;-7.408
2530;0.498;25.772;-38.494;-0.628;16.892;-4.967;-14.425;-32.524;29.975;-7.8;7.866;-24.537;-57.124;-15.619;-7.437
2540;-2.313;28.599;-37.018;-0.53;17.444;-2.608;-10.59;-31.552;30.102;-7.957;7.723;-24.313;-53.993;-14.172;-5.971
2550;-5.014;32.142;-33.772;-0.266;18.319;-0.928;-7.538;-30.457;30.077;-7.804;8.299;-23.069;-51.186;-13.131;-4.505
2560;-7.874;34.822;-28.988;-0.001;19.193;1.732;-4.486;-29.204;28.892;-7.921;9.007;-21.825;-50.008;-11.97;-3.039
2570;-9.166;37.495;-23.67;0.201;19.443;5.581;-1.727;-27.619;27.708;-8.039;10.434;-21.404;-48.103;-10.977;-1.745
2580;-11.178;40.822;-21.29;0.528;18.455;9.989;0.15;-25.364;26.523;-8.156;11.862;-22.164;-45.811;-9.514;-0.451
2590;-11.697;42.578;-19.233;0.655;17.388;14.167;2.457;-22.251;25.338;-8.403;13.41;-22.596;-43.458;-8.397;0.843
2600;-12.27;45.156;-17.263;0.706;16.95;17.77;5.069;-20.234;23.713;-8.663;14.668;-21.905;-40.872;-7.32;1.87
2610;-12.084;47.254;-15.243;0.814;15.901;22.068;7.681;-19.236;21.716;-8.924;16.086;-21.214;-38.952;-6.527;2.898
2620;-11.039;48.051;-12.618;1.08;13.182;25.556;9.312;-18.141;19.836;-9.185;17.503;-20.148;-36.032;-5.571;3.926
2630;-10.782;46.378;-10.495;1.312;10.943;28.571;9.914;-16.639;16.996;-9.628;18.292;-19.455;-31.974;-4.557;4.283
2640;-10.401;45.079;-8.014;1.903;7.33;30.611;10.877;-14.782;14.156;-9.985;18.999;-18.399;-30.145;-2.303;4.64
2650;-9.772;46.527;-7.975;2.537;4.628;32.541;12.389;-13.263;11.316;-10.342;19.065;-18.215;-29.543;6.846;4.997
2660;-10.623;47.713;-9.068;3.32;3.392;35.117;13.901;-12.212;8.476;-10.699;19.131;-18.032;-30.364;8.259;4.514
2670;-11.392;48.481;-8.559;3.945;3.262;37.574;14.891;-11.16;6.156;-11.359;19.261;-17.854;-30.291;10.077;4.046
2680;-14.377;49.105;-8.022;4.604;3.132;39.179;15.063;-10.554;4.194;-11.319;19.377;-19.352;-29.128;11.135;3.577
2690;-15.359;45.479;-6.934;4.83;1.886;40.314;15.476;2.61;2.357;-11.279;18.852;-20.473;-28.29;11.775;4.258
2700;-17.499;41.418;-7.662;5.057;-0.088;41.869;15.338;4.439;0.52;-11.239;17.968;-20.005;-29.691;11.338;4.898
2710;-18.2;34.557;-8.225;5.265;-2.222;45.639;15.2;3.789;-1.037;-11.702;17.057;-19.538;-30.463;11.066;5.538
2720;-19.032;28.048;-11.058;5.404;-4.043;49.484;14.034;3.208;-2.594;-11.914;16.27;-19.381;-29.116;11.354;6.433
2730;-20.509;22.179;-12.571;5.433;-5.863;50.422;12.171;4.49;-4.152;-12.127;15.484;-20.357;-26.423;11.636;7.441
2740;-22.063;16.338;-14.346;5.619;-8.313;52.063;10.665;4.061;-5.309;-12.339;13.698;-21.062;-23.953;12.72;8.45
2750;-23.639;12.57;-14.524;5.785;-11.139;54.433;8.714;2.291;-6.577;-12.946;11.891;-20.851;-21.593;14.034;9.327
2760;-24.374;8.877;-14.606;6.03;-12.234;55.323;6.764;1.679;-7.886;-14.334;9.964;-20.64;-19.706;14.269;9.501
2770;-24.992;3.331;-14.532;6.421;-13.563;55.873;6.324;1.563;-9.194;-15.721;8.037;-20.691;-20.039;13.781;9.674
