timepoints (min);01: bdA+.1;02: bdA+.2;03: bdA+.3;04: crybdIm1+.1;05: crybdIm1+.2;;06: bdA-.1;07: bdA-.2;08: bdA-.3;09: crybdIm1-.1;10: crybdIm1-.2;11: crybdIm1-.3;12: frq1+.1;13: frq1+.2;14: frq1+.3
1080;-165.971;-140.094;-376.393;-120.127;-33.82;;-214.531;-254.784;-210.084;-44.779;-258.288;-284.161;-334.685;-61.445;-351.645
1090;-146.037;-130.324;-365.807;-117.593;-35.212;;-205.699;-246.861;-203.062;-40.062;-256.894;-277.996;-321.506;-46.29;-349.127
1100;-127.96;-121.307;-356.667;-115.533;-36.827;;-199.213;-239.507;-196.013;-36.013;-255.947;-272.24;-309.4;-32.6;-346.92
1110;-113.168;-113.056;-348.579;-112.115;-38.049;;-193.701;-230.355;-190.01;-32.53;-253.487;-267.178;-298.497;-22.408;-345.533
1120;-99.5;-107.497;-340.837;-109.206;-39.335;;-189.7;-226.044;-182.823;-29.461;-251.247;-261.743;-288.262;-14.212;-343.574
1130;-86.457;-102.15;-331.714;-106.718;-41.577;;-185.393;-222.141;-176.5;-26.739;-250.718;-255.842;-275.645;-7.145;-341.496
1140;-70.566;-96.555;-320.185;-104.58;-44.327;;-181.248;-214.048;-165.965;-23.576;-249.332;-250.505;-264.913;-0.712;-340.268
1150;-60.338;-89.675;-308.637;-101.75;-46.938;;-177.05;-206.662;-156.113;-20.725;-247.413;-246.288;-254.875;4.987;-338.113
1160;-51.094;-81.972;-297.896;-99.265;-49.6;;-173.192;-197.487;-147.148;-19.011;-245.989;-242.19;-242.785;11.053;-335.575
1170;-42.072;-74.272;-286.926;-97.074;-52.152;;-170.061;-189.636;-139.863;-17.447;-244.731;-238.442;-232.18;16.901;-332.843
1180;-31.959;-66.86;-275.323;-95.138;-55.284;;-168.35;-182.34;-133.629;-16.014;-243.439;-233.335;-224.981;23.443;-329.789
1190;-20.387;-58.881;-265.095;-93.369;-58.786;;-166.744;-176.923;-127.851;-14.875;-242.28;-229.155;-219.03;29.97;-325.726
1200;-10.108;-51.24;-255.4;-91.819;-62.315;;-163.388;-172.334;-124.656;-13.819;-240.962;-224.828;-213.48;35.442;-321.04
1210;22.701;-29.955;-234.647;-87.727;-63.303;;-150.623;-161.173;-112.264;-8.179;-234.668;-212.091;-194.071;59.475;-309.868
1220;55.594;-8.623;-214.073;-84.031;-63.336;;-137.879;-149.414;-99.216;-2.541;-227.006;-199.348;-174.516;82.656;-298.079
1230;79.124;6.285;-192.048;-79.496;-65.553;;-127.259;-139.46;-87.398;3.095;-220.55;-186.983;-154.705;93.899;-284.893
1240;98.54;18.192;-169.313;-74.924;-68.014;;-116.431;-129.177;-75.377;8.147;-214.242;-174.655;-137.069;101.172;-271.043
1250;110.973;27.32;-147.987;-70.876;-71.702;;-107.669;-118.72;-66.231;13.198;-206.569;-166.571;-122.373;107.684;-258.756
1260;117.28;36.755;-128.732;-66.507;-75.326;;-100.913;-109.599;-58.644;13.804;-199.857;-159.875;-108.612;110.755;-249.714
1270;123.509;47.283;-111.498;-62.109;-79.353;;-94.438;-99.412;-51.091;14.409;-192.241;-151.714;-96.29;110.103;-241.758
1280;124.578;57.221;-100.049;-57.681;-82.897;;-89.397;-89.32;-47.318;15.015;-184.416;-145.049;-84.12;109.181;-233.767
1290;122.843;63.837;-89.157;-54.385;-86.318;;-86.812;-79.302;-40.733;16.369;-176.756;-138.643;-72.407;107.302;-225.028
1300;123.013;70.499;-79.726;-51.815;-88.987;;-81.541;-66.535;-34.187;17.724;-167.067;-131.493;-59.981;108.347;-215.752
1310;126.57;73.43;-68.632;-49.208;-91.5;;-74.464;-49.337;-25.559;17.269;-157.819;-124.048;-48.134;111.124;-206.101
1320;130.115;76.262;-59.697;-46.567;-93.749;;-67.147;-32.156;-19.692;16.814;-146.174;-114.857;-35.481;113.841;-196.774
1330;134.354;76.798;-48.869;-45.251;-95.916;;-61.9;-13.753;-12.78;16.359;-131.842;-105.4;-20.671;117.88;-187.742
1340;138.271;80.279;-37.357;-44.082;-97.565;;-58.95;2.766;-2.454;14.714;-118.472;-96.211;-5.972;124.887;-179.241
1350;142.03;83.8;-25.78;-42.88;-99.17;;-52.3;18.28;7.92;13.07;-106.77;-87.02;9.25;132.58;-171.26
1360;147.813;86.382;-17.297;-42.724;-100.783;;-45.68;34.752;19.141;11.226;-96.486;-74.948;25.158;142.335;-164.266
1370;153.503;89.155;-7.624;-42.576;-102.355;;-34.999;53.942;29.249;9.383;-88.877;-63.183;41.807;152.953;-156.347
1380;159.542;93.881;4.31;-42.195;-103.407;;-25.664;75.131;39.323;7.541;-77.585;-51.082;56.716;164.024;-148.398
1390;163.362;98.219;15.534;-41.783;-104.165;;-16.357;92.84;48.633;5.983;-66.87;-38.639;73.048;174.97;-140.414
1400;171.215;102.912;26.257;-42.141;-104.082;;-7.023;110.425;56.004;4.427;-54.99;-26.101;89.471;186.693;-127.789
1410;178.285;105.322;37.771;-42.186;-104.389;;4.569;126.336;63.344;4.386;-41.217;-10.811;104.458;198.492;-118.59
1420;185.237;107.848;49.01;-42.194;-104.492;;16.537;142.73;69.761;4.345;-26.998;4.454;120.544;209.758;-108.54
1430;190.15;110.493;60.477;-42.168;-105.253;;30.846;158.877;76.615;4.305;-12.75;21.144;139.135;219.134;-97.953
1440;194.642;112.844;73.881;-42.548;-105.968;;46.993;175.665;87.484;4.764;1.386;38.891;159.121;228.26;-87.172
1450;201.816;115.433;87.282;-42.535;-106.207;;61.358;192.915;102.138;5.22;15.055;56.135;181.009;238.796;-74.355
1460;213.217;120.645;102.376;-42.482;-106.403;;77.197;212.244;116.849;4.631;28.913;72.951;202.91;250.421;-61.191
1470;224.515;127.133;118.857;-42.391;-106.239;;95.896;231.057;130.295;4.039;41.815;89.79;225.856;262.105;-45.815
1480;235.189;134.022;136.011;-43.062;-105.708;;113.499;248.858;143.224;3.445;56.769;105.769;246.977;273.51;-28.956
1490;241.985;138.944;150.491;-43.051;-104.025;;131.452;266.053;156.134;3.194;71.834;121.748;266.576;284.578;-10.842
1500;251.362;143.377;164.704;-43;-102.254;;149.506;283.096;169.139;2.946;86.031;137.725;283.997;294.01;8.649
1510;262.248;145.292;179.33;-43.032;-99.057;;168.419;296.492;181.442;3.219;103.057;152.963;297.406;301.56;29.488
1520;273.038;145.725;197.398;-43.189;-95.355;;185.27;306.181;193.726;3.497;119.358;167.998;309.857;308.754;50.495
1530;282.968;147.775;217.267;-42.988;-91.63;;202.107;314.655;206.143;3.778;140.595;182.667;322.166;316.189;70.798
1540;292.611;151.952;234.33;-42.749;-89.616;;216.688;322.983;216.109;2.845;162.713;197.233;331.782;321.22;91.189
1550;300.615;157.775;251.438;-42.193;-87.582;;225.835;326.485;222.742;1.913;182.993;213.572;340.38;323.935;111.112
1560;307.159;164.434;267.256;-42.017;-85.93;;234.971;325.25;224.069;0.421;198.972;231.529;347.503;322.147;131.416
1570;313.683;169.394;282.397;-41.802;-84.393;;240.782;320.069;225.589;-1.071;212.514;247.865;351.14;319.006;152.477
1580;317.756;172.877;295.271;-41.55;-81.357;;246.214;310.864;223.853;-2.565;222.075;260.1;353.156;311.383;173.609
1590;319.194;175.012;308.833;-41.181;-78.463;;251.639;301.563;217.527;-2.418;231.535;269.13;355.316;300.794;195.119
1600;319.48;175.912;322.368;-41.312;-74.832;;253.648;293.424;211.184;-2.272;242.624;278.264;356.328;288.248;216.696
1610;317.776;177.562;338.629;-41.401;-71.725;;255.257;282.502;203.155;-1.108;254.416;281.678;354.08;272.751;239.643
1620;315.918;179.634;352.615;-41.448;-68.61;;253.139;272.745;194.573;0.059;271.237;285.173;349.447;254.982;261.426
1630;310.938;179.083;362.505;-41.654;-65.149;;251.599;260.927;185.981;1.229;285.4;286.891;341.343;235.618;282.998
1640;303.349;179.109;370.476;-41.345;-61.684;;249.777;249.05;177.721;2.736;297.355;288.114;330.126;216.707;304.471
1650;294.52;178.314;376.828;-40.997;-58.266;;247.751;235.246;171.305;4.243;308.071;289.322;318.766;196.537;320.723
1660;285.47;179.004;381.656;-41.289;-54.616;;241.525;220.628;174.238;5.4;314.85;286.615;305.245;175.707;340.311
1670;274.919;177.598;385.896;-41.184;-50.967;;233.696;206.018;169.943;6.558;318.784;282.225;291.358;155.198;358.809
1680;264.774;175.149;385.45;-41.04;-46.268;;224.484;192.049;165.559;7.717;322.608;275.063;276.319;135.083;375.853
1690;252.264;171.358;383.444;-40.857;-40.453;;213.182;178.745;157.73;8.06;324.858;265.485;258.533;114.061;391.478
1700;238.601;167.23;380.4;-41.397;-33.849;;201.874;164.341;145.356;8.406;327.705;254.391;237.095;92.295;405.259
1710;224.128;162.039;375.088;-42.06;-27.254;;187.86;148.403;132.975;8.138;329.419;243.448;215.455;69.911;418.798
1720;208.59;156.415;367.712;-42.687;-21.6;;171.794;132.629;121.734;7.87;330.385;230.928;191.594;47.531;428.759
1730;194.34;149.192;357.362;-43.279;-15.955;;155.721;116.942;110.352;7.602;329.165;218.579;167.899;24.688;435.39
1740;180.94;142.373;347.83;-44.676;-10.995;;138.375;101.163;98.967;7.069;327.174;206.5;144.048;1.242;440.691
1750;166.88;133.78;336.523;-46.043;-5.827;;119.974;85.293;87.716;6.537;321.407;195.861;120.22;-22.804;442.663
1760;152.229;124.687;323.981;-47.376;-1.19;;101.569;71.969;75.98;6.031;312.716;184.597;97.761;-46.6;441.08
1770;136.18;115.883;309.138;-48.676;2.811;;85.337;61.319;63.203;5.527;302.256;172.444;74.898;-69.707;436.704
1780;121.265;104.818;293.112;-50.264;7.76;;69.468;50.271;51.225;5.026;286.36;160.208;52.291;-93.388;429.751
1790;104.029;90.385;277.469;-51.023;15.894;;57.919;39.14;39.291;4.688;269.017;149.72;32.054;-115.867;418.732
1800;83.069;74.621;260.961;-51.743;24.018;;48.546;29.959;30.879;4.352;250.742;136.863;11.291;-136.185;403.459
1810;58.12;56.319;241.476;-54.193;33.586;;36.174;18.319;23.519;3.748;234.797;120.581;-12.754;-156.275;383.651
1820;32.265;39.797;222.302;-55.418;43.154;;25.721;9.359;16.159;3.143;217.532;104.257;-35.512;-176.586;360.582
1830;9.352;25.818;201.302;-56.643;52.594;;17.661;3.295;9.956;2.539;200.96;91.301;-58.01;-192.046;335.93
1840;-13.005;13.163;180.509;-57.868;62.021;;8.92;-4.068;4.742;1.538;184.532;80.686;-80.139;-206.116;309.943
1850;-33.731;1.647;158.694;-58.956;69.964;;0.961;-12.829;-0.168;0.537;166.052;70.801;-101.189;-220.137;282.622
1860;-52.851;-9.924;136.512;-60.451;78.789;;-7.218;-21.618;-4.37;-0.352;146.914;63.309;-119.829;-230.466;253.808
1870;-72.262;-21.19;113.641;-61.946;86.734;;-16.237;-32.167;-8.797;-1.24;124.337;54.28;-137.251;-237.479;224.143
1880;-88.728;-32.127;91.72;-63.441;93.172;;-24.862;-42.728;-13.611;-2.128;101.359;46.066;-152.121;-243.753;194.237
1890;-102.124;-43.212;69.812;-65.297;99.632;;-33.665;-53.058;-21.957;-3.96;80.748;36.488;-164.257;-249.346;164.801
1900;-115.194;-55.334;48.686;-65.462;104.588;;-42.468;-61.508;-30.303;-5.792;59.257;26.25;-176.192;-254.876;135.448
1910;-128.553;-66.935;27.119;-65.628;109.543;;-49.71;-69.092;-47.894;-7.684;40.201;16.956;-187.026;-259.657;105.71
1920;-141.11;-77.308;5.83;-66.273;115.655;;-55.223;-76.88;-56.11;-9.577;23.705;8.877;-197.898;-264.841;75.601
1930;-153.764;-86.288;-11.884;-66.822;121.746;;-60.737;-84.887;-64.327;-11.469;7.204;0.155;-207.903;-269.663;45.628
1940;-164.833;-94.534;-30.106;-66.971;127.441;;-66.106;-92.632;-72.808;-12.908;-7.516;-7.207;-215.872;-273.15;16.349
1950;-176.015;-102.27;-47.484;-67.12;132.47;;-72.007;-99.102;-78.779;-14.346;-22.796;-13.564;-221.892;-275.681;-13.171
1960;-188.163;-110.099;-64.142;-66.923;137.581;;-78.668;-105.829;-84.778;-14.71;-37.023;-19.625;-227.775;-277.233;-42.262
1970;-199.581;-119.604;-79.84;-66.655;142.571;;-86.178;-113.732;-92.086;-15.074;-50.676;-23.997;-231.406;-278.703;-70.012
1980;-211.385;-128.153;-93.869;-66.388;147.444;;-93.661;-121.596;-99.753;-15.439;-64.974;-28.12;-232.823;-280.337;-95.99
1990;-220.981;-136.154;-107.792;-66.12;152.574;;-100.303;-128.646;-106.906;-14.963;-78.903;-32.83;-234.44;-281.665;-121.443
2000;-231.574;-142.617;-120.189;-65.754;157.703;;-105.87;-135.432;-112.923;-14.487;-90.393;-39.121;-235.891;-282.381;-145.004
2010;-242.386;-147.339;-131.266;-63.564;163.454;;-111.277;-141.741;-118.939;-14.702;-101.752;-45.223;-236.004;-282.052;-167.08
2020;-251.774;-151.979;-141.443;-61.374;169.218;;-116.777;-148.174;-124.081;-14.917;-111.44;-51.125;-236.255;-281.968;-187.188
2030;-261.099;-155.585;-149.781;-59.183;174.92;;-123.139;-155.444;-129.255;-15.132;-120.608;-56.08;-237.89;-282.201;-205.087
2040;-267.897;-157.908;-158.321;-58.277;178.928;;-129.582;-162.749;-134.429;-16.226;-129.974;-62.814;-240.868;-282.28;-219.953
2050;-270.605;-159.132;-166.651;-55.37;182.949;;-135.545;-170.617;-140.208;-17.32;-138.381;-69.465;-244.335;-283.27;-231.873
2060;-272.531;-160.112;-175.421;-52.462;184.469;;-140.956;-177.884;-146.808;-18.109;-146.709;-76.924;-246.669;-284.728;-244.088
2070;-273.928;-161.23;-184.468;-51.034;185.621;;-146.367;-184.326;-153.291;-18.898;-153.968;-84.632;-248.036;-285.875;-254.143
2080;-275.726;-162.51;-191.29;-49.345;184.218;;-151.386;-190.859;-157.411;-19.687;-159.628;-91.434;-248.982;-287.659;-262.939
2090;-275.269;-163.203;-197.619;-46.775;182.76;;-155.717;-195.833;-160.781;-19.775;-165.953;-98.108;-249.582;-289.619;-270.745
2100;-275.346;-163.418;-202.201;-44.206;181.022;;-160.048;-199.712;-164.497;-19.863;-169.592;-104.79;-249.452;-289.034;-276.946
2110;-275.65;-163.199;-206.05;-41.015;179.257;;-163.752;-203.723;-167.691;-19.903;-173.11;-110.709;-248.401;-288.691;-281.617
2120;-275.792;-162.739;-208.306;-36.982;178.08;;-166.214;-207.121;-170.886;-19.943;-175.332;-115.178;-245.906;-287.988;-284.881
2130;-276.444;-162.268;-211.356;-32.949;178.476;;-168.676;-210.959;-173.059;-19.983;-177.796;-120.668;-243.212;-286.39;-287.836
2140;-276.988;-161.971;-213.745;-28.916;178.586;;-170.826;-214.876;-173.833;-20.509;-180.09;-124.503;-240.715;-285.415;-290.513
2150;-277.556;-161.866;-215.614;-26.731;179.354;;-172.498;-218.497;-174.607;-21.034;-181.761;-127.825;-238.19;-284.309;-292.728
2160;-278.185;-162.753;-215.683;-23.327;179.383;;-174.33;-221.219;-175.244;-22.512;-183.713;-131.498;-236.263;-282.966;-294.523
2170;-279.103;-164.287;-215.818;-19.923;178.668;;-175.938;-223.822;-177.526;-23.989;-185.44;-134.535;-234.372;-280.131;-295.302
2180;-280.043;-165.927;-215.462;-16.519;177.959;;-177.679;-226.748;-179.621;-25.466;-186.977;-137.115;-232.85;-276.439;-294.995
2190;-280.785;-168.163;-215.743;-13.528;176.257;;-178.899;-229.161;-182.468;-27;-188.113;-138.87;-232;-272.486;-294.921
2200;-281.313;-170.817;-216.425;-7.92;174.651;;-179.742;-232.214;-185.201;-28.534;-188.881;-140.207;-231.589;-269.186;-295.055
2210;-281.057;-174.168;-217.633;-2.312;170.52;;-180.625;-234.335;-186.651;-29.473;-190.171;-140.706;-230.916;-266.585;-295.204
2220;-280.281;-177.495;-218.858;3.137;166.334;;-181.601;-235.379;-186.928;-30.412;-192.356;-141.63;-230.317;-264.018;-294.974
2230;-279.389;-180.077;-219.583;9.13;160.993;;-182.932;-236.225;-187.206;-31.352;-193.73;-142.668;-229.881;-260.2;-294.957
2240;-278.414;-182.614;-219.754;15.563;155.032;;-183.463;-236.479;-187.69;-33.257;-194.703;-143.572;-227.902;-256.265;-295.226
2250;-277.341;-184.888;-219.046;21.996;148.848;;-184.059;-236.932;-188.657;-35.161;-195.64;-144.477;-224.597;-251.109;-294.397
2260;-276.241;-187.193;-218.702;26.866;140.047;;-183.884;-236.839;-189.623;-36.923;-196.246;-144.698;-220.75;-247.727;-293.188
2270;-274.797;-189.105;-218.354;32.811;131.273;;-183.709;-236.844;-189.672;-38.684;-196.691;-144.215;-216.945;-244.564;-290.979
2280;-273.408;-191.069;-218.341;38.756;120.219;;-183.103;-236.352;-189.134;-40.446;-197.481;-143.217;-211.302;-239.92;-287.815
2290;-272.259;-193.079;-217.727;44.701;109.166;;-182.087;-236.314;-187.899;-40.327;-199.502;-142.019;-203.742;-235.015;-284.168
2300;-270.841;-194.783;-216.633;49.017;95.952;;-181.07;-235.937;-186.193;-40.208;-201.439;-141.226;-193.793;-227.499;-279.8
2310;-270.01;-195.686;-215.342;53.608;82.731;;-179.527;-235.04;-184.354;-41.257;-203.323;-140.661;-182.524;-219.585;-274.593
2320;-269.178;-195.777;-214.112;58.2;70.057;;-177.164;-233.499;-181.652;-42.305;-204.807;-140.419;-171.341;-210.919;-267.95
2330;-268.381;-195.59;-212.901;62.792;58.862;;-174.961;-231.919;-179.775;-43.353;-205.123;-140.346;-160.288;-200.221;-259.636
2340;-267.912;-195.538;-212.203;66.648;48.446;;-172.152;-230.137;-177.898;-45.457;-205.193;-140.041;-149.742;-187.168;-250.588
2350;-266.523;-195.781;-211.385;71.083;38.189;;-168.828;-227.342;-176.353;-47.56;-204.57;-140.16;-139.752;-172.782;-240.44
2360;-264.571;-196.377;-210.206;75.517;28.174;;-165.703;-223.994;-173.11;-49.829;-203.17;-140.317;-129.01;-155.942;-229.463
2370;-262.568;-197.208;-209.622;79.192;18.097;;-162.807;-220.73;-169.868;-52.098;-202.05;-140.243;-118.81;-140.396;-218.983
2380;-260.683;-197.815;-209.727;83.108;8.019;;-159.03;-215.659;-166.519;-54.367;-199.97;-140.088;-108.452;-122.17;-207.513
2390;-259.189;-197.61;-209.314;90.263;-1.527;;-156.164;-210.61;-164.025;-56.218;-197.225;-139.983;-98.281;-101.634;-194.633
2400;-257.901;-197.935;-207.825;97.419;-11.059;;-152.126;-205.066;-162.103;-58.069;-193.64;-139.312;-84.952;-80.734;-180.617
2410;-255.705;-197.778;-207.037;103.501;-20.028;;-147.287;-199.243;-159.679;-57.789;-189.814;-137.775;-71.048;-57.124;-164.433
2420;-251.821;-197.694;-205.839;111.221;-29.65;;-143.146;-194.261;-155.888;-57.509;-186.054;-135.757;-56.308;-30.862;-147.179
2430;-247.702;-197.51;-205.327;118.941;-39.09;;-140.228;-188.417;-153.03;-57.229;-183.145;-134.608;-40.261;-2.702;-129.328
2440;-243.461;-196.834;-204.215;126.661;-48.07;;-137.309;-183.052;-147.739;-56.215;-182.379;-135.244;-21.548;25.054;-110.502
2450;-239.45;-196.29;-202.993;131.894;-56.927;;-133.731;-177.175;-142.448;-55.201;-181.974;-135.715;-2.819;53.756;-91.421
2460;-235.873;-195.548;-201.764;136.255;-63.676;;-129.777;-169.927;-137.239;-56.041;-180.498;-136.727;18.039;82.709;-71.541
2470;-232.276;-194.914;-200;140.617;-70.425;;-125.822;-163.131;-130.509;-56.881;-177.927;-136.603;40.77;112.36;-50.501
2480;-229.022;-194.822;-197.67;144.978;-76.168;;-121.914;-155.33;-123.779;-57.721;-174.396;-136.575;64.869;142.401;-28.626
2490;-226.167;-194.309;-195.061;148.996;-81.946;;-118.966;-149.448;-117.492;-58.281;-171.654;-136.331;88.767;172.745;-6.223
2500;-224.156;-193.012;-192.899;153.64;-87.167;;-116.017;-144.072;-111.036;-58.841;-168.749;-135.781;111.417;201.548;17.619
2510;-221.29;-192.037;-190.611;158.284;-91.201;;-113.517;-139.419;-104.806;-58.258;-165.197;-135.923;133.665;231.782;42.462
2520;-218.615;-191.019;-188.003;162.371;-95.088;;-110.698;-134.167;-99.59;-57.674;-161.061;-137.237;155.934;262.33;66.486
2530;-215.206;-189.502;-186.022;167.382;-97.777;;-107.559;-128.855;-95.063;-57.091;-157.004;-137.639;177.359;291.926;89.85
2540;-211.843;-187.284;-184.241;172.393;-100.272;;-103.814;-123.458;-91.753;-55.957;-154.121;-138.308;197.746;320.895;112.836
2550;-207.203;-185.321;-182.538;177.404;-100.651;;-98.909;-118.487;-88.244;-54.823;-151.35;-138.6;216.263;346.497;136.537
2560;-201.088;-183.254;-180.786;182.388;-101.03;;-93.767;-113.44;-84.735;-52.917;-148.419;-139.239;232.742;370.302;160.385
2570;-193.389;-180.734;-178.782;187.898;-101.284;;-87.08;-107.03;-80.683;-51.011;-144.749;-139.76;249.295;392.928;183.567
2580;-183.161;-178.081;-176.023;193.408;-101.641;;-80.033;-100.72;-76.386;-49.105;-141.599;-139.342;265.676;413.44;205.706
2590;-173.23;-174.251;-172.945;198.919;-102.397;;-72.981;-92.597;-72.09;-48.108;-137.099;-137.411;282.655;431.408;227.25
2600;-163.887;-168.484;-171.086;204.196;-101.905;;-66.459;-84.354;-68.034;-47.11;-133.218;-135.371;298.912;445.792;247.781
2610;-156.019;-161.874;-169.361;208.737;-101.301;;-59.938;-77.85;-65.657;-45.754;-131.697;-132.846;312.869;455.945;266.548
2620;-148.201;-154.717;-167.011;213.277;-100.023;;-53.487;-71.048;-61.258;-44.399;-130.039;-131.335;326.435;465.513;284.743
2630;-139.203;-148.877;-163.425;217.818;-98.581;;-45.673;-63.988;-55.286;-43.043;-128.237;-129.236;338.753;471.285;301
2640;-130.629;-144.458;-160.106;219.353;-97.31;;-37.859;-56.906;-49.066;-41.11;-122.316;-127.097;351.106;475.117;314.745
2650;-122.218;-139.912;-156.236;219.309;-96.04;;-30.807;-47.674;-42.812;-39.178;-117.869;-124.799;358.861;476.903;326.806
2660;-113.395;-136.217;-152.559;219.265;-94.137;;-22.167;-38.814;-31.913;-38.259;-114.126;-122.375;364.897;473.617;336.817
2670;-103.487;-131.974;-147.714;217.996;-92.24;;-13.527;-27.804;-21.014;-37.341;-110.01;-119.753;368.604;466.083;345.044
2680;-92.088;-127.23;-142.023;215.655;-89.884;;-2.694;-15.834;-8.116;-36.422;-105.601;-117.262;370.051;454.517;351.116
2690;-81.919;-122.749;-136.553;213.315;-87.657;;8.058;-3.628;3.051;-34.385;-97.073;-113.077;368.57;442.174;355.596
2700;-71.95;-117.559;-131.291;210.974;-85.375;;18.29;9.47;14.218;-32.348;-88.846;-107.005;366.585;427.062;358.687
2710;-62.435;-111.443;-127.359;209.65;-82.783;;29.611;24.448;25.167;-27.774;-81.081;-101.284;361.399;412.099;359.428
2720;-52.855;-105.785;-123.481;207.818;-80.378;;43.03;39.757;34.11;-23.2;-72.27;-95.832;352.626;396.786;357.123
2730;-40.781;-98.832;-118.004;205.986;-77.953;;56.41;58.612;44.716;-18.626;-61.473;-90.356;341.356;378.386;353.942
