timepoints (min);31: frq9-.2;32: frq9-.3;33: frq10-.1;34: frq10-.2;35: frq10-.3;36: wc-1+.1;37: wc-1+.2;38: wc-1+.3;39: wc-2+.1;40: wc-2+.3;41: wc-1-.1;42: wc-1-.3;43: wc-2-.1;44: wc-2-.2;45: wc-2-.3
900;-263.153;-168.574;-125.477;225.919;-73.955;-98.659;-217.974;-158.172;-197.739;-277.738;-109.427;-207.021;-161.594;-237.819;-126.312
910;-251.527;-157.9;-118.292;226.716;-69.22;-95.778;-205.873;-152.5;-192.647;-264.226;-102.541;-193.448;-150.629;-228.788;-122.207
920;-242.347;-148.707;-113.147;227.64;-65.547;-93.2;-195.56;-145.733;-188.227;-252.52;-98.307;-181.773;-141.213;-221.107;-118.96
930;-234.204;-140.75;-108.648;220.938;-62.434;-90.247;-186.214;-140.243;-183.184;-241.743;-94.819;-171.049;-133.053;-210.444;-114.957
940;-226.412;-133.953;-103.318;215.222;-58.95;-86.787;-178.032;-136.922;-179.067;-232.503;-90.801;-161.493;-124.727;-201.145;-111.7
950;-219.846;-127.731;-100.739;204.88;-55.598;-83.397;-170.282;-134.889;-175.017;-224.632;-87.051;-153.064;-117.393;-192.979;-108.06
960;-212.277;-121.413;-98.392;195.747;-52.999;-80.378;-163.272;-133.35;-171.244;-217.579;-83.647;-145.328;-110.893;-185.762;-104.656
970;-205.6;-115.738;-96.137;184;-51.387;-77.55;-157.15;-131.3;-167.625;-211.338;-79.725;-138.425;-105.1;-179.438;-101.1
980;-198.944;-110.586;-94.176;170.57;-50.898;-74.896;-151.563;-129.321;-164.624;-205.349;-76.543;-132.085;-99.247;-171.035;-97.935
990;-192.982;-106.052;-91.445;158.374;-50.255;-72.502;-145.895;-127.634;-161.922;-199.283;-73.765;-126.382;-93.98;-163.472;-94.752
1000;-186.954;-103.077;-89.819;147.036;-49.477;-70.21;-140.795;-126.202;-159.85;-193.926;-71.406;-121.131;-89.221;-156.636;-91.389
1010;-181.488;-100.31;-88.071;136.649;-48.464;-68.024;-135.863;-125.06;-157.768;-188.601;-69.054;-116.042;-84.905;-150.685;-88.196
1020;-176.351;-98.268;-87.525;128.016;-47.824;-65.856;-131.122;-124.127;-155.369;-183.172;-66.454;-111.376;-81.209;-145.282;-85.391
1030;-153.811;-79.506;-71.402;115.311;-34.233;-56.273;-111.553;-113.542;-141.026;-158.314;-51.352;-90.789;-67.88;-130.886;-76.176
1040;-131.035;-59.979;-54.119;101.88;-21.062;-46.76;-92.014;-102.675;-126.76;-133.714;-36.235;-70.179;-54.531;-116.46;-66.114
1050;-108.487;-50.54;-45.71;87.964;-14.641;-40.644;-73.631;-95.361;-114.782;-116.694;-27.048;-53.255;-41.162;-102.007;-56.18
1060;-95.734;-40.178;-34.54;73.184;-14.055;-36.738;-60.624;-89.899;-106.475;-103.28;-20.906;-36.31;-28.114;-87.752;-49.996
1070;-81.769;-34.542;-28.68;58.891;-12.967;-32.233;-47.593;-83.56;-100.433;-92.978;-17.073;-25.993;-20.924;-73.467;-43.813
1080;-73.434;-28.542;-23.075;46.553;-14.411;-28.248;-39.977;-79.187;-95.31;-83.359;-13.34;-15.66;-13.713;-63.791;-40.22
1090;-64.167;-24.177;-22.536;39.158;-15.981;-24.747;-34.454;-74.265;-90.211;-75.951;-11.658;-9.965;-6.482;-54.087;-36.617
1100;-57.563;-19.645;-20.512;31.754;-17.124;-21.175;-29.024;-70.471;-85.697;-70.268;-10.382;-4.184;0.412;-44.355;-33.725
1110;-50.875;-16.805;-19.756;26.389;-18.233;-17.768;-25.022;-67.163;-81.985;-65.425;-9.089;-0.746;2.127;-34.574;-30.983
1120;-46.362;-13.196;-17.524;21.002;-19.402;-14.518;-21.952;-63.933;-79.048;-60.13;-7.623;1.469;3.863;-24.768;-27.989
1130;-41.961;-10.297;-15.364;11.679;-21.428;-11.703;-18.843;-61.393;-76.367;-54.852;-5.041;3.7;5.62;-19.578;-25.536
1140;-37.135;-6.711;-14.28;0.527;-23.403;-9.073;-15.917;-58.646;-73.687;-49.62;-2.228;5.725;7.177;-14.362;-23.179
1150;-32.508;-4.425;-13.778;-9.585;-25.562;-7.046;-13.165;-56.151;-71.114;-44.083;0.28;7.764;7.033;-9.124;-21.382
1160;-26.573;-1.651;-13.507;-15.604;-27.584;-5.202;-10.379;-54.959;-68.552;-39.516;2.119;9.335;6.908;-3.732;-20.352
1170;-20.39;0.9;-13.09;-22.05;-29.21;-3.69;-8.14;-54.88;-65.89;-35.2;4.8;10.61;6.8;1.44;-19.29
1180;-13.817;3.822;-12.196;-24.369;-30.942;-2.695;-6.518;-54.377;-63.351;-31.356;6.756;11.542;6.729;4.03;-19.016
1190;-7.734;6.629;-9.47;-26.711;-32.899;-2.705;-4.836;-52.603;-60.144;-27.725;7.695;12.06;5.833;6.639;-18.072
1200;-1.88;9.372;-5.219;-24.762;-35.277;-3.069;-3.432;-50.228;-57.301;-24.495;8.729;12.592;4.952;9.266;-17.552
1210;2.602;11.223;1.467;-22.839;-37.63;-3.583;-2.087;-47.634;-54.233;-21.886;9.862;12.833;4.086;11.909;-17.046
1220;6.926;12.733;7.596;-16.79;-39.322;-3.893;-0.617;-45.604;-51.019;-19.269;11.402;13.086;3.442;14.65;-16.992
1230;10.954;14.148;12.448;-8.77;-40.187;-4.255;0.835;-43.862;-47.673;-16.945;13.359;13.543;2.171;15.086;-16.794
1240;15.269;16.184;12.485;-1.459;-41.213;-4.385;1.971;-42.062;-44.322;-14.404;14.404;14.288;0.912;15.538;-16.495
1250;18.962;19.511;13.229;5.948;-42.5;-4.913;3.121;-40.074;-40.41;-11.022;15.439;14.966;-0.335;16.006;-16.374
1260;22.857;23.934;14.342;9.802;-44.172;-5.824;4.356;-37.902;-36.567;-7.705;15.258;15.237;-1.492;16.406;-16.048
1270;26.445;28.951;16.542;11.078;-45.496;-6.565;5.476;-35.475;-32.593;-4.918;14.458;15.515;-2.556;17.182;-15.464
1280;29.648;34.461;23.15;12.328;-45.843;-7.07;6.25;-33.077;-29.19;-1.991;12.708;15.686;-3.608;17.453;-14.735
1290;32.434;39.063;29.006;14.618;-45.588;-6.626;6.997;-30.859;-25.377;1.691;10.967;15.864;-4.647;17.74;-14.432
1300;35.47;43.199;34.51;16.883;-44.791;-6.282;7.993;-28.827;-22.507;5.393;9.2;15.4;-5.563;18.041;-14.053
1310;37.953;46.43;33.271;19.934;-43.983;-5.077;9.76;-27.447;-19.312;8.707;7.998;14.945;-6.307;18.313;-13.381
1320;39.242;48.355;30.167;22.958;-43.626;-3.998;11.565;-27.249;-16.117;11.553;8.343;14.325;-7.04;18.92;-12.739
1330;40.936;50.071;26.205;24.318;-43.034;-3.011;13.493;-27.157;-13.644;15.224;9.057;14.165;-7.761;18.741;-11.324
1340;41.354;50.999;24.644;22.729;-42.429;-1.848;15.271;-27.542;-11.896;19.465;10;13.895;-8.126;18.576;-9.906
1350;41.698;51.726;23.594;23.192;-42.464;-0.291;17.035;-27.102;-9.876;23.298;9.986;13.717;-8.241;18.425;-7.954
1360;42.687;52.585;25.275;23.102;-42.617;1.289;18.295;-26.686;-7.894;26.661;8.723;13.55;-8.345;18.245;-5.991
1370;43.538;52.545;27.673;24.303;-41.993;2.682;19.527;-26.228;-5.35;29.53;8.153;13.222;-8.44;18.038;-5.093
1380;45.916;51.158;30.554;23.999;-40.853;3.938;20.769;-25.494;-1.81;31.934;6.411;12.904;-8.244;17.725;-3.499
1390;47.54;48.653;31.833;23.674;-39.156;5.626;20.99;-24.223;3.013;34.57;4.587;12.589;-7.795;17.425;-1.527
1400;48.135;45.248;32.912;20.555;-37.206;7.893;20.301;-22.655;8.005;36.343;2.662;13.407;-7.334;17.105;0.502
1410;47.459;41.116;32.005;17.413;-34.875;10.871;19.622;-20.335;13.794;38.082;0.989;14.075;-6.861;16.798;3.019
1420;45.328;36.928;31.888;10.896;-32.536;14.72;19.536;-17.64;19.616;39.984;-0.656;15.024;-6.096;16.904;5.192
1430;42.847;32.521;30.383;5.234;-29.623;18.697;20.219;-15.181;25.014;41.883;-1.571;15.983;-5.28;17.022;7.12
1440;41.152;28.175;26.209;3.259;-27.118;22.891;20.998;-12.658;29.461;44.395;-1.901;17.151;-4.453;17.152;7.827
1450;39.665;24.303;21.524;0.699;-23.888;26.749;21.505;-9.926;33.987;47.145;-2.342;18.328;-3.615;17.192;8.93
1460;38.335;20.365;16.586;-1.22;-20.564;30.92;21.78;-7.325;38.585;50.554;-2.883;19.672;-2.666;17.245;9.605
1470;38.291;16.915;11.297;-6.865;-17.031;34.915;22.008;-4.554;43.091;53.84;-4.282;20.783;-1.868;17.671;10.817
1480;38.291;14.437;8.783;-12.525;-13.902;39.292;22.234;-1.458;47.165;57.119;-5.478;21.473;-1.061;18.109;11.553
1490;39.057;11.248;9.703;-18.174;-10.881;43.86;22.509;1.746;50.862;60.075;-6.143;21.203;-0.284;18.559;12.264
1500;40.108;9.432;12.16;-23.839;-7.77;48.731;22.798;5.151;54.521;62.954;-6.693;20.946;0.542;18.736;12.7
1510;42.029;6.354;14.699;-26.881;-4.282;53.868;23.057;9.117;57.761;65.096;-6.576;19.744;1.216;18.928;13.237
1520;44.276;3.61;17.321;-28.061;-1.385;58.319;23.28;12.807;60.396;66.764;-6.427;18.567;1.899;18.816;14.378
1530;45.553;0.203;15.16;-29.906;0.86;62.073;23.51;17.206;63.182;68.276;-5.638;17.509;2.605;18.719;15.779
1540;47.435;-3.467;12.694;-32.002;2.783;65.015;23.718;22.126;66.146;69.814;-4.599;16.51;3.439;18.637;17.38
1550;50.068;-7.329;9.56;-32.506;4.358;68.104;23.568;27.242;69.423;71.463;-3.82;16.677;4.16;18.447;18.98
1560;53.505;-11.175;9.976;-32.985;6.904;70.15;22.864;32.608;72.505;72.679;-3.886;17.197;4.888;18.272;19.796
1570;57.046;-13.716;10.44;-31.113;8.714;71.506;22.497;38.497;76.38;74.209;-5.204;17.924;5.696;18.073;20.61
1580;59.149;-16.243;11.876;-27.681;10.094;72.882;22.589;44.488;81.557;75.683;-6.513;18.731;6.829;17.889;21.176
1590;61.192;-17.5;12.043;-24.258;10.365;74.172;22.687;50.363;86.972;76.406;-7.84;19.544;7.649;17.72;20.581
1600;62.318;-18.745;12.061;-22.26;10.605;75.288;22.805;55.602;91.877;77.156;-7.851;20.378;8.474;17.643;19.02
1610;62.367;-20.268;9.456;-20.275;10.943;76.336;23.106;60.737;96.84;77.463;-7.098;21.218;9.333;18.419;17.017
1620;61.68;-21.779;6.891;-19.891;11.389;76.879;23.691;65.879;101.997;78.163;-6.697;22.015;10.717;19.248;15.233
1630;55.018;-26.534;-0.702;-16.281;9.312;75.852;20.548;67.19;103.512;73.832;-9.05;19.364;9.087;17.181;11.257
1640;47.217;-31.288;-6.989;-12.945;6.641;74.601;17.85;67.823;104.259;69.834;-12.057;16.433;7.457;15.113;7.239
1650;40.255;-33.783;-11.898;-7.646;5.412;73.92;15.859;68.924;105.641;67.63;-13.821;13.364;5.84;13.011;3.661
1660;34.705;-36.279;-14.663;-2.215;5.663;72.559;14.738;69.876;107.341;66.084;-14.701;10.295;4.863;11.709;0.772
1670;30.514;-37.877;-14.912;6.734;5.941;69.637;13.636;70.447;108.626;65.011;-15.319;7.706;4.621;10.247;-1.716
1680;27.524;-39.476;-12.745;15.683;7.022;66.684;13.743;71.097;109.677;64.597;-15.451;5.117;4.378;9.723;-3.77
1690;25.134;-40.585;-9.709;19.554;8.299;63.018;14.265;71.153;111.177;64.997;-14.828;3.648;4.204;9.199;-5.223
1700;23.461;-41.694;-6.521;23.426;9.011;59.392;15.361;71.189;112.51;65.894;-14.148;2.219;4.47;8.468;-6.381
1710;23.188;-41.817;-5.815;23.923;8.942;55.726;17.294;71.581;113.605;67.44;-13.35;1.262;5.633;7.657;-6.458
1720;22.334;-41.939;-7.083;26.299;9.033;52.2;19.461;71.75;113.943;69.189;-13.327;0.543;6.796;6.406;-6.349
1730;21.966;-42.87;-9.709;28.137;9.559;48.543;21.521;71.614;114.618;70.923;-14.03;-0.175;8.041;5.975;-3.76
1740;20.899;-43.801;-11.866;30.884;10.356;44.437;23.354;71.523;115.938;71.999;-14.334;-0.604;9.207;5.545;-1.212
1750;20.699;-45.946;-14.601;33.761;10.393;40.334;25.243;70.99;116.88;72.458;-14.051;-1.033;10.629;5.101;3.683
1760;19.619;-48.119;-17.494;36.959;10.028;36.637;26.683;70.166;117.748;73.345;-13.492;-0.699;12.051;4.137;8.626
1770;19.163;-49.997;-21.683;40.796;9.382;34.301;27.843;69.154;118.19;74.432;-12.52;0.075;13.432;3.132;12.822
1780;19.666;-51.869;-27.399;43.931;9.057;32.317;28.996;67.444;118.639;75.855;-11.592;0.963;14.572;2.577;17.236
1790;20.073;-52.328;-32.977;47.066;9.097;30.874;30.095;64.735;119.079;76.948;-10.979;1.639;15.738;2.186;21.022
1800;20.04;-51.945;-37.717;46.97;10.088;29.487;31.668;61.697;118.921;78.339;-10.457;2.314;16.903;1.796;24.312
1810;20.172;-50.178;-41.794;46.873;10.84;27.738;33.261;58.283;118.702;80.094;-10.048;2.279;17.938;1.406;28.183
1820;19.745;-48.09;-44.204;43.437;12.252;26.535;34.199;54.539;117.375;81.777;-9.423;2.243;18.772;0.735;32.291
1830;20.532;-45.674;-46.432;38.137;13.141;25.073;34.305;51.117;114.855;83.45;-9.393;1.161;19.397;0.465;36.474
1840;20.248;-43.563;-47.068;33.708;14.949;23.703;34.354;47.843;111.852;85.233;-9.39;0.08;20.022;0.215;41.498
1850;20.946;-42.63;-47.469;28.978;16.763;22.108;34.363;44.37;108.604;86.422;-9.821;-1.581;20.654;-0.034;46.68
1860;20.851;-41.486;-47.077;23.858;19.068;20.299;34.579;40.33;105.294;87.52;-10.135;-3.32;21.646;-0.764;51.502
1870;21.316;-40.863;-47.025;18.75;20.452;18.098;34.578;36.317;101.086;87.797;-10.553;-4.939;22.103;-1.494;56.31
1880;21.801;-39.619;-45.913;13.643;21.295;16.11;34.604;32.734;95.517;88.575;-10.799;-6.632;22.561;-2.134;60.039
1890;22.287;-37.524;-43.881;8.592;21.367;13.484;34.354;29.512;89.281;87.926;-11.044;-8.324;23.123;-2.994;63.877
1900;22.821;-35.292;-40.332;3.541;20.639;10.879;34.159;26.519;83.097;86.698;-10.909;-9.85;23.724;-3.855;66.956
1910;22.394;-32.902;-36.259;-2.545;19.43;8.472;33.846;23.737;76.85;84.446;-10.446;-11.375;23.658;-5.316;69.986
1920;22.368;-30.783;-31.837;-8.59;18.252;6.898;33.35;21.259;70.476;82.434;-10.186;-11.953;23.592;-6.777;73.177
1930;21.782;-29.243;-28.534;-15.721;17.074;5.233;32.161;18.993;63.396;79.327;-10.244;-12.211;23.539;-8.099;76.263
1940;20.097;-28.121;-25.69;-21.509;15.832;4.334;30.924;17.171;56.372;76.159;-10.75;-12.635;23.367;-9.836;79.383
1950;18.819;-26.732;-25.156;-28.119;15.803;3.694;29.277;15.662;50.08;73.326;-10.812;-12.745;22.713;-11.572;82.586
1960;16.218;-25.85;-25.105;-32.054;16.134;3.183;27.472;13.749;43.739;70.343;-10.277;-12.855;22.059;-13.029;85.21
1970;14.317;-24.116;-25.575;-35.989;16.229;2.508;25.632;12.247;37.931;66.564;-9.142;-12.393;21.426;-14.486;89.677
1980;11.897;-22.32;-26.47;-36.43;15.534;0.874;23.777;11.204;31.924;61.821;-7.252;-11.931;21.753;-15.921;92.025
1990;9.724;-18.207;-24.812;-36.872;15.079;-1.004;22.132;10.068;25.01;56.557;-5.21;-11.128;22.119;-17.571;94.31
2000;7.632;-14.206;-22.574;-37.956;15.232;-3.554;20.564;8.848;17.385;51.97;-3.848;-10.726;22.484;-19.061;94.385
2010;5.767;-8.801;-20.025;-39.04;15.772;-6.505;19.015;7.088;8.657;47.487;-2.556;-10.768;22.905;-20.03;94.61
2020;3.702;-4.232;-16.68;-41.742;16.713;-10.121;17.363;5.77;0.153;43.509;-2.023;-11.418;23.326;-21.041;94.848
2030;1.679;-0.2;-11.491;-44.476;17.341;-13.639;15.559;3.76;-8.799;38.724;-2.303;-12.068;23.979;-22.052;96.327
2040;-0.625;2.761;-6.612;-47.28;18.868;-17.637;13.412;1.174;-17.647;32.073;-2.526;-12.379;24.633;-22.995;97.874
2050;-3.203;3.789;-2.07;-49.028;19.034;-21.859;11.199;-1.131;-26.623;24.92;-2.754;-12.691;25.259;-23.417;98.102
2060;-6.403;3.55;3.212;-49.91;18.581;-25.623;8.992;-3.721;-36.964;17.097;-2.063;-12.891;25.366;-23.839;98.323
2070;-9.098;2.65;8.646;-48.937;17.589;-29.513;7.401;-6.684;-46.625;9.303;-0.279;-13.091;25.699;-24.247;95.663
2080;-12.041;1.594;12.52;-47.963;16.877;-33.538;5.942;-9.913;-55.326;1.097;1.636;-12.458;26.033;-24.655;93.115
2090;-13.865;1.283;15.294;-47.641;16.079;-37.596;4.644;-13.895;-62.346;-7.033;3.378;-9.713;26.601;-25.063;91.046
2100;-15.923;2.219;16.89;-47.32;15.287;-41.841;3.299;-17.948;-68.615;-16.112;4.487;-6.608;27.17;-23.952;89.101
2110;-17.101;4.382;18.628;-48.014;13.895;-45.662;2.101;-21.364;-74.563;-26.457;5.27;1.261;27.406;-23.2;87.436
2120;-18.265;6.93;21.51;-48.472;12.633;-48.611;0.703;-24.539;-80.074;-36.81;6.426;9.13;27.641;-22.386;85.792
2130;-19.349;10.64;25.807;-47.419;11.608;-51.108;-0.77;-27.454;-85.295;-47.69;7.346;14.508;27.887;-21.572;83.314
2140;-19.963;13.954;28.16;-46.206;11.943;-52.32;-2.53;-30.737;-90.614;-57.582;8.218;19.885;28.132;-20.717;80.906
2150;-20.937;16.786;28.756;-44.759;13.011;-53.345;-3.841;-34.014;-96.08;-67.868;9.097;21.142;28.359;-19.182;78.764
2160;-20.968;19.88;29.222;-42.218;14.154;-54.132;-4.974;-36.963;-101.737;-77.207;9.993;21.599;28.585;-17.847;75.897
2170;-21.781;22.466;27.87;-39.677;14.858;-55.663;-5.757;-40.072;-106.777;-87.061;11.228;21.739;28.377;-16.457;72.684
2180;-21.985;25.837;26.505;-36.33;14.713;-57.621;-6.414;-43.081;-110.961;-96.288;12.545;21.641;28.168;-15.066;69.979
2190;-21.994;28.75;25.64;-32.982;14.383;-59.754;-7.077;-46.324;-115.263;-105.399;13.777;21.543;28.135;-13.662;67.145
2200;-22.364;31.534;26.93;-29.706;12.854;-61.897;-7.948;-49.79;-120.534;-113.127;14.399;21.088;28.102;-12.698;64.283
2210;-22.458;33.938;29.588;-26.63;11.81;-64.152;-9.339;-52.423;-125.717;-120.531;14.258;20.633;27.826;-11.934;61.434
2220;-22.192;35.629;34.05;-24.363;11.277;-66.447;-10.731;-55.559;-130.797;-127.343;14.269;20.052;27.55;-11.177;55.586
2230;-21.298;37.046;38.698;-24.208;11.425;-68.043;-12.243;-57.854;-134.903;-134.177;13.913;19.752;26.397;-10.543;49.883
2240;-18.204;36.283;39.513;-24.556;11.446;-69.931;-13.563;-59.139;-138.163;-140.652;13.799;19.204;25.244;-9.91;44.419
2250;-15.96;36.361;39.654;-23.942;11.061;-71.739;-14.952;-60.397;-139.964;-147.004;13.622;19.019;23.859;-9.237;39.073
2260;-12.756;35.099;39.968;-22.928;10.116;-73.423;-16.27;-60.458;-140.297;-153.342;13.314;18.834;22.474;-8.564;33.167
2270;-10.306;35.583;40.556;-20.699;9.411;-75.011;-17.356;-60.337;-140.705;-160.073;13.167;18.534;21.138;-7.863;27.268
2280;-9.308;36.392;40.582;-18.47;9.196;-76.265;-18.469;-59.538;-140.555;-166.145;13.599;18.233;19.801;-7.218;19.528
2290;-7.905;38.207;39.974;-14.392;8.13;-77.179;-19.201;-57.982;-141.032;-169.51;14.166;17.771;17.934;-6.572;11.61
2300;-8.223;41.583;39.303;-10.313;7.292;-78.182;-20.468;-56.312;-140.982;-172.448;14.633;17.309;16.066;-5.247;5.091
2310;-7.782;44.266;40.099;-7.492;6.743;-79.058;-21.803;-54.452;-139.132;-174.804;14.575;17.581;14.719;-3.921;-1.545
2320;-7.003;47.459;39.077;-5.956;6.657;-79.594;-23.745;-51.662;-136.894;-176.694;14.058;18.179;13.371;-2.52;-6.061
2330;-5.823;50.658;39.23;-6.28;6.706;-79.702;-25.586;-48.297;-134.982;-177.291;13.949;18.418;11.474;-1.119;-10.639
2340;-4.32;53.203;36.881;-6.348;6.948;-79.152;-27.379;-44.302;-133.819;-176.939;14.317;16.429;9.378;0.283;-15.28
2350;-2.737;56.222;34.629;-7.563;7.21;-78.788;-29.033;-39.937;-131.823;-175.095;15.239;14.44;7.288;0.244;-20.088
2360;-1.171;58.127;30.732;-8.052;7.778;-78.617;-30.676;-35.594;-129.211;-171.108;15.586;7.75;5.199;0.206;-24.335
2370;0.555;60.087;26.699;-8.542;8.058;-78.632;-32.091;-31.466;-126.814;-165.516;15.556;1.061;3.397;0.174;-28.298
2380;2.034;60.768;22.637;-10.666;8.294;-78.709;-33.365;-27.545;-123.79;-159.497;16.353;-3.174;1.676;-0.079;-30.916
2390;4.332;61.401;20.137;-12.79;7.501;-78.836;-34.356;-23.353;-121.204;-153.705;17.247;-7.441;-0.025;-1.291;-33.27
2400;7.108;61.982;17.808;-14.64;6.068;-78.844;-36.313;-19.291;-118.597;-147.501;18.668;-7.939;-1.726;-3.183;-35.659
2410;10.226;62.563;13.098;-16.97;4.848;-78.654;-38.257;-15.44;-115.386;-140.572;20.139;-7.608;-2.597;-5.076;-36.612
2420;13.905;62.21;8.436;-19.579;4.172;-77.84;-41.186;-11.474;-111.581;-132.208;21.455;-7.277;-3.069;-6.92;-37.517
2430;17.335;61.857;2.268;-21.207;4.617;-76.461;-44.226;-7.863;-107.966;-124.077;22.778;-6.817;-3.486;-8.943;-39.342
2440;20.125;61.339;-3.68;-24.702;5.128;-74.997;-47.315;-4.468;-104.139;-116.534;23.986;-6.356;-3.902;-11.087;-41.36
2450;22.695;60.822;-8.335;-26.428;6.074;-73.412;-50.145;-1.197;-99.585;-110.335;25.178;-5.748;-4.359;-12.79;-43.658
2460;25.225;60.692;-13.145;-28.673;6.181;-72.008;-52.676;1.357;-94.567;-103.021;26.451;-5.059;-4.655;-14.349;-46.08
2470;26.604;60.563;-17.898;-30.234;6.051;-70.512;-55.276;3.841;-89.108;-94.768;27.828;-4.699;-4.862;-15.908;-47.262
2480;28.263;60.942;-22.717;-31.796;6.092;-69.143;-57.639;4.596;-83.952;-85.743;28.923;-4.414;-5.069;-17.314;-48.423
2490;27.592;61.321;-26.47;-34.228;6.494;-67.775;-59.727;4.437;-78.6;-76.563;29.91;-4.128;-5.931;-17.441;-49.625
2500;26.428;61.094;-28.611;-36.659;7.308;-66.063;-61.946;3.851;-73.796;-66.999;31.086;-3.724;-6.713;-17.768;-50.778
2510;24.283;60.866;-31.571;-39.145;8.332;-64.077;-63.997;2.614;-69.359;-57.094;31.927;-3.32;-7.385;-17.957;-51.411
2520;21.115;58.578;-34.338;-42.557;9.117;-61.836;-65.808;1.298;-65.135;-47.237;32.633;-3.018;-8.057;-18.146;-52.037
2530;19.266;56.29;-35.699;-44.092;9.654;-60.241;-67.578;0.334;-60.937;-37.501;32.583;-2.716;-8.912;-18.149;-52.157
2540;17.632;52.999;-36.268;-46.972;10.135;-59.314;-68.746;0.228;-57.039;-28.381;32.575;-2.539;-9.367;-15.752;-52.237
2550;17.197;49.708;-36.217;-49.83;11.137;-58.316;-68.999;0.041;-53.255;-19.752;33.181;-2.27;-9.746;-14.555;-51.783
2560;16.887;47.23;-36.273;-52.353;11.788;-56.858;-69.161;0.623;-49.909;-11.017;33.807;-2.321;-10.126;-13.371;-51.346
2570;16.457;44.912;-36.654;-54.876;12.977;-55.621;-68.655;1.084;-47.062;-2.941;34.305;-2.655;-10.728;-12.188;-50.247
2580;15.868;42.393;-37.066;-55.72;14.126;-53.945;-67.756;0.935;-44.222;4.342;34.327;-2.989;-10.851;-11.039;-48.782
2590;14.599;40.088;-35.709;-56.564;15.034;-51.975;-66.767;0.88;-41.313;10.71;33.415;-3.218;-10.988;-8.65;-47.283
2600;13.401;38.417;-36.64;-57.966;16.141;-49.487;-66.015;0.868;-38.806;17.37;32.545;-3.447;-11.124;-6.341;-45.63
2610;12.288;36.364;-37.626;-59.887;17.887;-47.039;-65.382;1.099;-37.194;23.441;31.876;-3.687;-11.588;-4.121;-43.971
2620;11.139;35.775;-38.35;-62.988;19.756;-44.713;-64.77;1.022;-35.019;28.353;31.265;-4.011;-12.291;-2.04;-42.552
