timepoints (min);16: frq7+.1;17: frq7+.2;18: frq7+.3;19: frq1-.1;20: frq1-.3;;21: frq7-.1;22: frq7-.2;;23: frq9+.1;24: frq9+.2;25: frq9+.3;26: frq10+.1;27: frq10+.2;28: frq10+.3
740;-283.929;-281.298;-303.97;-10.622;30.062;;-116.238;-112.152;;64.148;-52.122;69.196;-70.356;-96.743;-74.712
750;-284.666;-269.745;-301.147;-7.488;35.077;;-110.434;-107.423;;79.55;-45.097;70.612;-61.846;-88.492;-69.838
760;-286.787;-262.8;-299.28;-4.533;32.8;;-105.333;-103.28;;92.147;-39.573;73.907;-55.187;-79.547;-63.307
770;-287.22;-258.819;-298.503;-5.549;30.941;;-100.934;-100.622;;101.207;-36.618;77.398;-50.299;-71.974;-57.753
780;-287.584;-254.337;-296.898;-6.425;31.635;;-95.934;-98.275;;106.189;-35.135;80.64;-44.332;-64.448;-50.759
790;-285.184;-250.872;-295.585;-7.235;32.385;;-91.543;-94.654;;110.701;-34.064;82.137;-39.073;-58.419;-46.346
800;-279.734;-249.487;-294.093;-6.473;31.107;;-87.598;-91.406;;115.824;-34.093;82.552;-34.957;-54.378;-40.149
810;-274.8;-249.05;-291.563;-5.45;30.05;;-84.087;-87.987;;118.212;-35.938;82.8;-29.75;-50.65;-34.738
820;-270.815;-249.203;-288.691;-0.538;30.025;;-81.09;-84.921;;119.723;-37.404;82.788;-24.781;-47.944;-30.901
830;-269.218;-249.159;-285.303;3.959;30.102;;-78.398;-81.438;;117.613;-37.822;82.431;-21.827;-44.46;-27.919
840;-269.391;-247.072;-280.726;8.118;28.963;;-76.031;-78.309;;114.314;-37.693;81.589;-19.217;-39.511;-24.24
850;-268.869;-244.315;-275.869;12.833;28.012;;-73.893;-74.464;;111.083;-37.845;81.56;-17.387;-34.875;-21.452
860;-268.744;-240.946;-270.066;16.845;28.179;;-72.555;-70.984;;107.784;-36.995;83.513;-15.379;-31.993;-18.868
870;-262.399;-225.762;-253.272;23.58;31.723;;-64.061;-58.266;;116.605;-20.79;93;-9.136;-22.98;-8.237
880;-252.468;-208.763;-234.685;30.314;38.247;;-55.56;-45.545;;125.41;-7.105;101.716;-3.397;-13.955;4.317
890;-244.146;-195.786;-220.356;36.716;42.386;;-47.05;-36.416;;129.31;3.447;105.528;2.509;-4.971;14.35
900;-237.316;-185.022;-207.007;38.763;52.045;;-38.293;-27.29;;126.634;9.658;103.669;9.623;4.501;21.359
910;-234.316;-175.982;-194.118;40.616;60.516;;-35.684;-19.962;;123.211;17.767;101.751;14.109;14.169;26.253
920;-233.104;-167.786;-182.213;39.197;64.689;;-33.065;-12.612;;114.512;20.139;95.655;17.509;19.507;32.142
930;-230.418;-159.775;-171.34;37.788;68.875;;-29.677;-5.519;;108.027;25.956;88.732;21.943;23.04;36.06
940;-225.148;-151.957;-161.614;36.291;72.714;;-26.278;1.576;;102.294;31.534;79.986;27.121;26.127;39.215
950;-217.206;-144.759;-152.164;36.605;74.689;;-25.378;10.299;;99.595;36.509;70.218;30.769;27.704;41.406
960;-207.486;-138.248;-142.613;36.507;77.253;;-24.463;17.219;;96.533;38.396;62.442;31.377;29.078;43.438
970;-196.545;-131.871;-132.296;35.949;76.199;;-23.213;25.19;;92.488;39.048;56.569;31.876;28.994;45.388
980;-184.874;-126.421;-121.865;35.408;73.94;;-21.948;32.551;;87.608;40.678;51.785;32.489;28.541;47.132
990;-172.105;-121.084;-110.709;34.28;74.384;;-21.158;37.881;;79.314;40.218;47.092;32.034;28.028;49.313
1000;-159.939;-114.815;-99.569;32.415;72.232;;-20.355;44.041;;66.238;37.368;40.504;30.629;28.567;51.295
1010;-148.09;-105.24;-88.08;30.73;74.18;;-19.3;50.92;;52.83;35.3;33.51;30.41;28.12;51.57
1020;-136.081;-92.286;-75.703;30.063;75.55;;-18.234;58.182;;40.063;34.594;26.404;32.213;26.823;52.54
1030;-123.73;-78.077;-63.905;29.413;75.583;;-17.917;62.74;;27.642;33.646;18.43;32.608;24.756;51.298
1040;-112.083;-62.241;-51.972;29.324;75.163;;-17.59;66.254;;13.225;29.192;9.226;33.906;23.111;50.975
1050;-102.262;-43.761;-40.454;28.122;76.135;;-17.853;69.157;;-1.901;24.814;1.107;35.668;22.018;46.316
1060;-91.933;-24.857;-29.408;26.926;76.92;;-18.107;71.299;;-16.472;19.859;-6.13;36.752;20.282;42.27
1070;-79.863;-6.96;-18.707;21.255;77.261;;-18.354;71.426;;-30.923;14.397;-11.641;35.083;18.977;40.632
1080;-63.677;10.672;-8.356;15.311;77.052;;-18.589;70.503;;-43.542;7.925;-17.838;36.117;16.99;41.523
1090;-46.479;25.599;1.547;10.777;78.159;;-18.574;71.209;;-54.79;-0.299;-24.216;38.5;14.997;42.094
1100;-31.143;39.471;12.687;5.413;79.599;;-18.548;70.704;;-65.619;-7.427;-31.31;41.321;12.897;40.483
1110;-15.785;52.26;22.736;0.296;79.716;;-17.975;70.375;;-76.553;-15.176;-39.98;41.88;11.4;38.964
1120;-1.137;65.566;31.421;-4.135;79.175;;-17.39;68.994;;-86.241;-23.127;-47.399;41.355;11.493;39.32
1130;10.54;78.486;39.968;-8.551;75.681;;-14.595;69.167;;-96.15;-30.946;-53.805;43.025;10.108;37.352
1140;22.25;90.952;48.583;-14.283;72.098;;-11.789;68.287;;-106.449;-38.272;-59.771;51.164;8.799;32.537
1150;33.873;101.855;57.885;-18.089;63.197;;-9.467;67.756;;-117.017;-46.895;-68.033;53.594;7.319;28.995
1160;48.377;113.456;65.033;-22.221;53.8;;-7.13;67.527;;-125.65;-56.177;-77.249;56.88;8.155;28.423
1170;66.169;126.453;72.851;-23.782;48.684;;-3.1;66.466;;-134.421;-66.633;-83.952;58.031;8.508;26.128
1180;83.113;139.158;81.754;-25.401;42.441;;0.245;65.144;;-142.013;-81.452;-89.83;57.439;8.872;23.558
1190;98.733;150.766;90.503;-28.049;36.522;;3.602;63.425;;-151.119;-95.6;-94.188;57.203;9.342;20.333
1200;113.573;161.662;99.973;-30.767;30.545;;6.251;60.329;;-158.777;-107.291;-96.929;57.728;10.808;17.404
1210;126.423;170.772;110.09;-32.915;23.653;;8.912;55.17;;-165.622;-116.035;-96.18;57.983;12.153;13.673
1220;138.149;179.147;121.607;-33.982;17.5;;11.496;49.322;;-170.621;-121.974;-95.188;57.98;14.093;11.378
1230;149.955;187.147;132.236;-35.442;12.593;;14.087;43.979;;-175.019;-127.507;-93.725;57.493;15.666;9.241
1240;160.291;194.288;142.209;-37.774;7.416;;15.486;40.672;;-178.495;-131.085;-91.812;58.171;16.752;7.095
1250;169.37;198.147;152.961;-40.098;5.008;;16.891;35.072;;-180.804;-131.819;-88.433;58.401;15.574;2.298
1260;175.544;201.328;162.984;-42.544;-1.096;;18;29.112;;-181.92;-132.472;-85.984;57.92;14.168;-2.832
1270;181.935;200.96;171.453;-42.021;-6.745;;19.116;23.394;;-182.117;-131.877;-84.165;54.2;14.284;-8.648
1280;187.812;197.973;179.171;-41.819;-11.231;;20.281;19.718;;-180.716;-130.278;-81.462;49.833;15.386;-12.466
1290;193.16;194.486;186.643;-43.924;-15.701;;21.452;16.797;;-177.933;-123.243;-76.609;45.141;16.717;-15.484
1300;199.517;188.837;191.348;-46.016;-18.428;;23.316;14.397;;-176.428;-114.642;-71.75;40.972;19.703;-16.775
1310;205.471;184.757;195.294;-47.115;-21.135;;25.186;12.683;;-174.438;-104.325;-69.823;36.032;24.206;-16.905
1320;208.259;180.577;200.286;-47.042;-25.56;;27.182;13.373;;-174.462;-93.4;-71.158;34.448;28.784;-19.157
1330;211.115;176.55;205.478;-47.409;-29.325;;29.183;13.398;;-174.575;-82.432;-72.486;32.24;31.173;-23.01
1340;215.251;173.191;211.217;-48.196;-33.722;;30.964;11.937;;-174.783;-70.015;-74.809;29.697;31.303;-27.133
1350;220.383;169.669;216.103;-48.964;-38.534;;32.751;10.408;;-175.449;-57.193;-77.583;27.033;31.15;-28.098
1360;228.809;166.398;220.57;-50.373;-44.037;;34.062;8.717;;-173.409;-43.421;-80.348;24.711;31.636;-28.867
1370;231.966;163.241;226.044;-51.485;-49.352;;35.379;7.919;;-172.45;-31.638;-83.19;24.013;31.522;-29.711
1380;234.394;158.431;230.168;-52.754;-55.092;;34.302;5.683;;-168.702;-17.054;-85.818;20.869;33.642;-30.166
1390;237.002;154.446;234.285;-52.524;-60.263;;33.234;2.98;;-164.848;-3.083;-88.031;11.641;35.647;-27.941
1400;237.923;152.274;237.155;-52.275;-64.698;;31.973;0.201;;-160.939;9.929;-89.169;7.243;37.582;-21.255
1410;238.487;149.667;238.511;-53.276;-69.291;;30.719;-0.943;;-157.51;21.816;-89.887;2;36.55;-14.896
1420;239.661;146.701;237.276;-55.975;-74.898;;27.905;-1.045;;-151.457;33.621;-90.319;-1.433;36.074;-5.937
1430;239.529;144.784;236.616;-58.448;-79.303;;25.097;0.558;;-144.268;44.012;-88.639;-4.515;35.68;-5.342
1440;239.093;144.781;236.154;-59.944;-84.125;;22.493;2.36;;-136.215;54.931;-83.392;-7.35;34.926;-5.983
1450;238.252;145.75;232.087;-61.041;-89.097;;20.574;4.852;;-129.076;64.569;-77.973;-10.381;33.982;-5.442
1460;238.67;147.946;227.568;-60.926;-92.804;;18.659;8.985;;-120.766;74.321;-76.691;-12.621;33.552;-4.025
1470;236.847;144.484;219.946;-63.003;-97.542;;14.185;8.797;;-115.418;79.688;-73.993;-15.185;32.188;-5.604
1480;233.258;139.105;212.194;-64.928;-102.633;;9.71;7.679;;-110.792;83.494;-71.137;-16.23;31.051;-5.61
1490;228.633;133.897;205.408;-64.606;-107.237;;6.615;6.408;;-106.069;86.623;-69.712;-17.935;30.663;-2.801
1500;224.633;130.621;198.126;-63.862;-112.662;;3.52;7.012;;-100.636;89.646;-66.152;-20.797;29.952;3.008
1510;224.168;125.981;191.502;-62.171;-114.076;;2.219;11.977;;-97.661;91.348;-62.592;-22.81;29.159;8.614
1520;223.025;122.015;185.258;-61.941;-115.474;;0.857;16.581;;-96.432;91.654;-57.223;-21.92;27.313;11.857
1530;220.538;118.968;177.883;-61.469;-118.24;;-0.546;18.331;;-96.823;91.073;-52.655;-20.316;25.415;13.579
1540;216.203;116.101;170.781;-58.357;-120.895;;-2.039;19.334;;-97.542;88.412;-47.194;-20.581;23.366;15.277
1550;208.633;113.75;165.258;-55.701;-124.934;;-1.992;19.337;;-95.97;84.622;-41.941;-21.455;21.55;17.074
1560;200.072;108.938;158.217;-52.65;-127.812;;-1.972;18.96;;-91.582;81.701;-33.76;-20.448;18.164;16.157
1570;192.034;104.597;149.343;-49.364;-128.088;;-2.108;17.302;;-85.319;78.774;-24.51;-19.374;13.734;14.793
1580;181.75;99.963;137.188;-46.079;-128.337;;-2.243;16.978;;-79.781;76.75;-15.335;-18.819;11.23;15.77
1590;169.808;94.383;122.516;-43.062;-128.808;;-2.672;16.574;;-72.629;74.897;-4.705;-20.567;9.887;16.56
1600;157.847;88.229;106.673;-39.783;-130;;-3.101;15.859;;-64.694;72.181;6.457;-22.865;9.243;17.192
1610;142.411;81.548;90.72;-35.839;-131.644;;-3.084;13.603;;-59.6;67.505;17.611;-22.945;7.96;16.738
1620;130.223;74.455;73.399;-32.294;-132.691;;-2.895;10.117;;-51.701;61.528;26.389;-22.92;5.903;15.859
1630;118.072;67.521;56.774;-28.611;-132.67;;-2.728;9.079;;-46.252;55.25;35.439;-22.046;3.156;15.767
1640;104.658;58.91;38.804;-26.941;-131.05;;-2.396;8.603;;-37.92;49.251;42.316;-21.4;0.782;14.331
1650;92.997;49.989;23.662;-24.994;-130.08;;-1.863;8.487;;-30.156;45.679;50.047;-20.69;-1.764;7.262
1660;82.054;41.174;12.76;-22.008;-128.357;;-1.524;7.208;;-20.71;41.839;56.978;-20.247;-5.2;-1.83
1670;68.803;31.077;3.917;-18.194;-125.519;;-0.368;4.31;;-13.374;38.752;65.716;-20.6;-8.458;-11.501
1680;56.639;20.417;-5.91;-12.863;-123.88;;0.788;0.072;;-2.825;37.303;72.745;-20.51;-10.459;-11.526
1690;43.11;8.685;-15.372;-7.39;-121.926;;1.619;-4.847;;8.244;36.061;78.326;-20.901;-11.134;-9.399
1700;29.53;-3.552;-23.88;-1.772;-118.262;;2.451;-10.222;;18.819;34.404;83.542;-21.008;-11.021;-7.862
1710;15.396;-15.199;-33.088;1.695;-115.611;;3.349;-15.517;;28.463;30.701;88.789;-22.036;-11.321;-7.55
1720;0.65;-26.015;-42.979;5.011;-110.284;;4.767;-17.913;;39.159;28.939;89.371;-23.36;-10.64;-7.644
1730;-13.487;-34.876;-51.236;8.197;-104.914;;6.35;-20.91;;50.277;27.857;90.212;-25.778;-9.836;-8.877
1740;-26.621;-41.772;-59.539;10.223;-100.385;;7.948;-22.887;;62.277;29.019;95.006;-27.554;-9.199;-11.021
1750;-38.964;-47.999;-67.873;11.815;-94.055;;10.746;-26.143;;73.805;31.746;99.254;-28.034;-9.029;-13.622
1760;-52.541;-55.137;-76.259;14.124;-87.937;;13.033;-33.519;;87.029;35.483;110.008;-30.549;-8.908;-14.021
1770;-67.269;-62.263;-84.481;16.281;-82.564;;15.32;-41.823;;100.472;41.381;114.363;-32.106;-7.807;-11.677
1780;-80.381;-69.406;-91.342;18.759;-76.592;;17.644;-46.847;;114.752;50.206;119.806;-32.741;-6.767;-8.95
1790;-92.052;-78.437;-99.046;21.028;-70.702;;20.023;-50.975;;130.283;56.952;120.738;-32.361;-6.69;-8.731
1800;-101.927;-86.334;-106.521;23.248;-64.284;;21.243;-53.828;;144.103;63.662;122.087;-32.873;-8.33;-10.353
1810;-110.233;-92.65;-111.527;20.713;-58.868;;22.428;-54.961;;153.011;66.695;122.469;-29.217;-8.397;-9.956
1820;-118.757;-97.948;-116.331;17.847;-53.138;;22.548;-54.538;;163.128;68.954;121.669;-27.559;-7.96;-8.655
1830;-126.963;-104.633;-119.935;16.901;-47.408;;22.474;-52.859;;174.243;69.388;121.604;-27.497;-8.441;-9.382
1840;-133.348;-110.342;-122.332;15.153;-40.815;;22.688;-51.101;;182.937;69.469;121.172;-28.55;-9.123;-11.046
1850;-139.721;-114.777;-124.143;13.75;-33.978;;22.902;-48.102;;190.887;68.392;119.33;-29.141;-8.909;-13.269
1860;-145.988;-119.029;-126.514;13.71;-25.166;;23.519;-43.499;;198.999;68.239;119.07;-31.298;-5.902;-14.415
1870;-149.725;-123.39;-128.661;13.443;-16.847;;24.135;-38.386;;203.065;68.725;120.731;-30.986;-3.288;-15.199
1880;-151.455;-126.433;-130.843;14.8;-7.448;;24.808;-36.265;;205.113;68.234;123.597;-29.276;-0.774;-16.083
1890;-150.459;-128.145;-131.79;18.299;0.143;;25.481;-33.938;;204.32;66.426;126.15;-27.194;0.532;-16.194
1900;-149.706;-131.108;-134.6;21.654;8.57;;25.611;-32.206;;204.669;62.279;128.703;-24.989;1.683;-16.306
1910;-151.212;-134.102;-138.305;25.328;16.332;;25.844;-30.018;;204.897;58.597;130.861;-20.472;3.923;-15.11
1920;-153.083;-135.977;-143.178;28.575;24.175;;25.557;-26.604;;205.978;55.626;131.461;-18.756;5.512;-14.239
1930;-154.443;-138.317;-147.697;33.215;32.266;;25.112;-26.617;;202.903;51.432;130.374;-18.679;5.55;-15.091
1940;-154.739;-140.953;-152.371;38.434;42.069;;24.51;-25.673;;198.697;45.56;128.604;-17.068;5.614;-16.223
1950;-155.372;-143.017;-155.392;43.654;51.556;;23.909;-23.33;;195.047;37.488;128.607;-15.661;5.113;-17.968
1960;-156.857;-146.196;-158.706;49.6;63.163;;23.028;-20.783;;190.934;31.495;129.164;-14.199;3.79;-18.309
1970;-158.484;-149.396;-162.843;55.298;71.894;;22.146;-16.652;;186.143;22.782;130.855;-14.211;1.123;-18.277
1980;-159.633;-152.737;-167.208;61.968;78.774;;22.703;-11.713;;181.47;13.313;127.734;-15.026;-1.786;-17.766
1990;-160.97;-156.52;-172.88;68.411;84.966;;23.261;-5.727;;176.447;2.874;119.517;-14.854;-4.601;-19.495
2000;-162.654;-161.052;-178.739;74.95;91.274;;22.555;1.56;;172.47;-5.4;110.901;-15.091;-5.439;-21.986
2010;-163.023;-165.601;-184.012;81.298;102.025;;21.683;8.007;;167.208;-13.036;96.113;-14.019;-5.67;-25.236
2020;-162.448;-169.492;-188.513;87.887;113.217;;20.461;15.501;;162.908;-21.378;85.262;-15.268;-6.206;-29.648
2030;-163.819;-173.55;-192.835;92.996;122.636;;19.505;21.885;;156.076;-26.396;74.321;-16.526;-8.073;-34.324
2040;-167.927;-176.817;-196.874;97.953;131.869;;18.549;27.327;;146.615;-32.778;64.801;-18.681;-10.022;-36.538
2050;-172.971;-179.957;-200.16;100.669;141.272;;17.771;33.168;;137.436;-41.76;53.481;-20.168;-12.374;-36.886
2060;-178.841;-183.441;-203.553;105.775;150.674;;17.097;36.739;;130.334;-48.713;42.313;-27.087;-15.444;-37.462
2070;-184.389;-187.258;-206.488;111.349;158.35;;18.182;39.778;;120.619;-53.218;33.839;-32.032;-17.138;-40.444
2080;-189.532;-190.181;-209.491;112.93;167.257;;19.323;42.314;;108.721;-57.834;23.115;-35.465;-16.651;-44.328
2090;-195.377;-191.59;-212.469;115.777;175.01;;19.217;44.686;;97.618;-62.378;12.895;-37.011;-17.807;-46.8
2100;-200.207;-192.739;-215.432;118.989;182.883;;19.083;46.011;;87.989;-66.072;4.199;-38.167;-21.36;-47.348
2110;-205.21;-194.494;-216.263;120.241;184.887;;17.462;46.497;;78.117;-69.566;-6.212;-37.534;-26.8;-47.837
2120;-208.823;-196.761;-215.694;122.873;186.737;;16.201;46.32;;70.106;-71.506;-16.801;-39.327;-30.977;-48.302
2130;-212.673;-198.581;-215.855;122.549;187.741;;14.961;45.159;;65.396;-71.681;-28.676;-41.745;-34.83;-49.284
2140;-213.698;-199.368;-215.857;121.914;188.181;;14.241;44.441;;62.756;-71.091;-39.388;-45.2;-37.15;-50.444
2150;-213.381;-200.141;-216.432;122.2;187.05;;13.913;43.71;;59.721;-71.335;-49.619;-49.684;-38.306;-52.425
2160;-213.432;-201.088;-217.352;123.305;185.698;;13.676;41.843;;53.708;-72.516;-59.959;-55.131;-39.154;-54.079
2170;-211.541;-202.943;-217.07;123.714;182.45;;13.659;38.883;;45.924;-75.815;-70.553;-56.203;-40.163;-53.159
2180;-211.294;-202.519;-216.152;121.414;177.523;;13.636;39.655;;39;-79.615;-80.866;-55.832;-41.894;-48.461
2190;-212.076;-202.148;-213.601;120.839;170.87;;14.332;40.655;;32.681;-82.35;-90.899;-56.742;-43.85;-38.688
2200;-213.905;-203.306;-210.996;119.145;164.218;;15.057;40.179;;26.519;-82.292;-102.921;-56.008;-45.797;-32.298
2210;-212.917;-202.892;-205.916;114.495;155.881;;15.898;40.063;;18.565;-81.772;-114.812;-53.739;-47.749;-25.942
2220;-213.232;-201.335;-199.999;110.032;146.582;;15.788;38.28;;7.709;-80.477;-130.343;-53.768;-48.81;-21.197
2230;-213.79;-199.857;-193.447;103.601;138.934;;14.666;37.534;;-3.568;-78.175;-142.367;-51.96;-49.607;-18.881
2240;-211.491;-198.997;-184.343;95.879;133.926;;12.585;35.099;;-15.628;-74.734;-151.01;-49.332;-50.829;-18.305
2250;-209.007;-197.33;-175.792;87.4;126.966;;10.345;32.341;;-28.517;-73.087;-158.706;-45.917;-52.534;-13.676
2260;-206.6;-193.287;-168.992;77.662;116.05;;9.225;29.432;;-41.141;-72.506;-166.372;-41.561;-53.766;-8.254
2270;-203.172;-187.877;-163.724;66.251;104.872;;6.691;26.265;;-52.854;-69.931;-170.357;-37.837;-55.212;-2.993
2280;-198.015;-181.942;-159.146;54.16;99.334;;4.199;24.4;;-61.066;-71.292;-173.087;-35.8;-55.674;0.4
2290;-189.572;-173.375;-154.279;41.606;92.989;;2.461;22.183;;-67.568;-70.259;-175.022;-33.044;-54.197;2.392
2300;-178.891;-164.326;-149.484;31.168;78.428;;0.538;18.903;;-73.892;-66.913;-176.757;-29.588;-52.484;3.621
2310;-167.018;-154.652;-144.215;20.88;64.08;;-0.745;14.463;;-79.177;-63.394;-178.527;-25.521;-50.737;4.661
2320;-153.521;-141.648;-137.497;10.272;48.097;;-2.916;10.239;;-83.272;-63.309;-180.894;-21.199;-50.589;8.028
2330;-139.592;-127.749;-129.945;0.994;34.15;;-6.212;5.728;;-85.223;-63.977;-179.299;-17.166;-51.956;13.978
2340;-125.861;-114.636;-120.909;-9.57;19.735;;-8.549;1.966;;-87.617;-62.686;-175.771;-13.521;-51.763;19.066
2350;-113.073;-102.361;-110.418;-19.741;4.582;;-11.079;-2.833;;-90.36;-61.857;-173.019;-10.345;-49.938;22.154
2360;-101.514;-89.65;-101.881;-27.988;-8.008;;-12.632;-7.021;;-93.266;-61.041;-170.123;-7.392;-47.604;25.062
2370;-90.622;-76.321;-92.862;-37.877;-20.054;;-14.69;-11.848;;-95.106;-63.761;-168.061;-3.225;-46.31;27.007
2380;-81.062;-64.259;-82.844;-46.753;-32.099;;-17.8;-16.443;;-99.364;-68.153;-167.193;-0.818;-45.128;28.28
2390;-75.872;-52.731;-72.361;-56.916;-43.945;;-21.75;-21.759;;-106.348;-71.803;-169.108;1.41;-44.69;29.734
2400;-70.901;-39.343;-61.49;-67.639;-55.499;;-25.494;-27.921;;-114.177;-74.622;-171.502;5.574;-45.363;32.916
2410;-63.717;-25.121;-51.632;-76.603;-66.84;;-29.197;-32.044;;-119.44;-75.451;-175.265;9.526;-46.128;36.33
2420;-57.601;-10.143;-41.312;-82.443;-76.621;;-33.273;-35.364;;-124.672;-74.865;-178.715;12.114;-45.559;37.691
2430;-49.559;4.319;-27.859;-87.821;-85.072;;-36.229;-38.44;;-131.808;-68.859;-182.443;15.236;-44.348;35.357
2440;-39.468;18.143;-14.723;-95.873;-92.859;;-40.154;-43.57;;-137.018;-68.077;-186.218;19.383;-43.233;28.382
2450;-27.477;33.963;-1.524;-104.959;-100.771;;-43.908;-48.168;;-142.058;-66.719;-189.233;22.288;-42.585;24.948
2460;-14.972;52.771;10.31;-111.255;-108.203;;-48.101;-53.659;;-143.059;-64.662;-191.145;22.872;-41.738;21.196
2470;-1.913;71.514;21.917;-117.372;-115.183;;-50.901;-58.63;;-141.772;-62.058;-190.745;25.822;-39.531;18.088
2480;10.346;89.945;35.217;-122.37;-121.778;;-53.128;-64.542;;-139.145;-60.414;-191.941;27.055;-36.52;17.841
2490;21.637;108.123;47.25;-126.65;-129.182;;-54.265;-72.291;;-134.236;-59.164;-193.737;30.257;-33.794;20.236
2500;33.532;125.654;62.832;-129.548;-134.4;;-55.512;-78.931;;-128.782;-59.41;-196.692;30.714;-31.248;20.474
2510;44.519;142.145;78.862;-131.852;-140.183;;-58.479;-83.651;;-122.731;-57.919;-199.44;30.193;-29.826;19.534
2520;56.623;156.077;94.743;-131.357;-145.539;;-59.537;-88.41;;-117.452;-58.519;-202.011;32.326;-28.617;19.961
2530;70.124;169.881;110.286;-129.77;-155.364;;-59.674;-93.317;;-114.219;-59.326;-202.367;35.114;-26.297;21.977
2540;83.236;182.999;125.603;-129.934;-163.28;;-59.818;-98.462;;-112.726;-58.989;-197.876;38.161;-23.692;24.676
2550;96.346;195.316;139.392;-130.112;-163.716;;-60.092;-103.074;;-112.509;-59.006;-192.615;39.55;-20.236;26.836
2560;109.204;206.876;153.052;-129.989;-164.152;;-60.959;-107.012;;-112.498;-59.527;-185.434;39.63;-17.041;28.148
2570;120.916;215.145;166.808;-128.371;-157.178;;-61.859;-111.79;;-111.734;-58.359;-176.995;39.439;-13.139;29.103
2580;132.526;222.255;181.072;-126.858;-155.163;;-61.68;-116.753;;-111.468;-55.71;-171.121;39.211;-8.748;29.019
2590;145.578;229.556;194.058;-125.393;-152.734;;-61.29;-122.697;;-109.877;-54.197;-168.575;38.377;-5.479;30.88
2600;159.534;237.647;206.076;-125.088;-150.505;;-60.148;-128.901;;-107.879;-51.114;-165.709;36.328;-3.749;34.542
